"","LocationAbbr","CMMR_Barcode","Target","Ct","copiesperml","SampleName","date_of_collection"
"1","JT","VXAFY6","CHIKUNGUNYA","Undetermined",0,"JT-23-13145",2023-05-01
"2","JT","VXAFY6","CHIKUNGUNYA","Undetermined",0,"JT-23-13145",2023-05-01
"3","FH","Y73Z97","CHIKUNGUNYA","Undetermined",0,"FH-23-13146",2023-05-01
"4","FH","Y73Z97","CHIKUNGUNYA","Undetermined",0,"FH-23-13146",2023-05-01
"5","HS","UMYHM4","CHIKUNGUNYA","Undetermined",0,"HS-23-13147",2023-05-01
"6","HS","UMYHM4","CHIKUNGUNYA","Undetermined",0,"HS-23-13147",2023-05-01
"7","RB","CJL3UA","CHIKUNGUNYA","Undetermined",0,"RB-23-13148",2023-05-01
"8","RB","CJL3UA","CHIKUNGUNYA","Undetermined",0,"RB-23-13148",2023-05-01
"9","AS","WKMNCK","CHIKUNGUNYA","Undetermined",0,"AS-23-0502",2023-05-02
"10","AS","WKMNCK","CHIKUNGUNYA","Undetermined",0,"AS-23-0502",2023-05-02
"11","TC","BDAEKQ","CHIKUNGUNYA","Undetermined",0,"TC-23-0502",2023-05-02
"12","TC","BDAEKQ","CHIKUNGUNYA","Undetermined",0,"TC-23-0502",2023-05-02
"13","MC","T8FAMA","CHIKUNGUNYA","Undetermined",0,"CC-23-0502",2023-05-02
"14","MC","T8FAMA","CHIKUNGUNYA","Undetermined",0,"CC-23-0502",2023-05-02
"15","IA","R5BVPW","CHIKUNGUNYA","Undetermined",0,"IA-23-0502",2023-05-02
"16","IA","R5BVPW","CHIKUNGUNYA","Undetermined",0,"IA-23-0502",2023-05-02
"17","PT","GQ4CHJ","CHIKUNGUNYA","Undetermined",0,"PT-23-0502",2023-05-02
"18","PT","GQ4CHJ","CHIKUNGUNYA","Undetermined",0,"PT-23-0502",2023-05-02
"19","HO","QGL4GB","CHIKUNGUNYA","Undetermined",0,"HO-23-0502",2023-05-02
"20","HO","QGL4GB","CHIKUNGUNYA","Undetermined",0,"HO-23-0502",2023-05-02
"21","LB","PE3K2W","CHIKUNGUNYA","Undetermined",0,"LB_TX1 005022023",2023-05-01
"22","LB","PE3K2W","CHIKUNGUNYA","Undetermined",0,"LB_TX1 005022023",2023-05-01
"23","WF","E7QL3P","CHIKUNGUNYA","Undetermined",0,"Wichita Falls-2023-05-02",2023-05-01
"24","WF","E7QL3P","CHIKUNGUNYA","Undetermined",0,"Wichita Falls-2023-05-02",2023-05-01
"25","B1","T3FHJB","CHIKUNGUNYA","Undetermined",0,"BSR5323",2023-05-02
"26","B1","T3FHJB","CHIKUNGUNYA","Undetermined",0,"BSR5323",2023-05-02
"27","B2","LVKBYC","CHIKUNGUNYA","Undetermined",0,"SABIB5323",2023-05-03
"28","B2","LVKBYC","CHIKUNGUNYA","Undetermined",0,"SABIB5323",2023-05-03
"29","JT","VXAFY6","DENGUE","Undetermined",0,"JT-23-13145",2023-05-01
"30","JT","VXAFY6","DENGUE","Undetermined",0,"JT-23-13145",2023-05-01
"31","FH","Y73Z97","DENGUE","Undetermined",0,"FH-23-13146",2023-05-01
"32","FH","Y73Z97","DENGUE","Undetermined",0,"FH-23-13146",2023-05-01
"33","HS","UMYHM4","DENGUE","Undetermined",0,"HS-23-13147",2023-05-01
"34","HS","UMYHM4","DENGUE","Undetermined",0,"HS-23-13147",2023-05-01
"35","RB","CJL3UA","DENGUE","Undetermined",0,"RB-23-13148",2023-05-01
"36","RB","CJL3UA","DENGUE","Undetermined",0,"RB-23-13148",2023-05-01
"37","AS","WKMNCK","DENGUE","Undetermined",0,"AS-23-0502",2023-05-02
"38","AS","WKMNCK","DENGUE","Undetermined",0,"AS-23-0502",2023-05-02
"39","TC","BDAEKQ","DENGUE","Undetermined",0,"TC-23-0502",2023-05-02
"40","TC","BDAEKQ","DENGUE","Undetermined",0,"TC-23-0502",2023-05-02
"41","MC","T8FAMA","DENGUE","Undetermined",0,"CC-23-0502",2023-05-02
"42","MC","T8FAMA","DENGUE","Undetermined",0,"CC-23-0502",2023-05-02
"43","IA","R5BVPW","DENGUE","Undetermined",0,"IA-23-0502",2023-05-02
"44","IA","R5BVPW","DENGUE","Undetermined",0,"IA-23-0502",2023-05-02
"45","PT","GQ4CHJ","DENGUE","Undetermined",0,"PT-23-0502",2023-05-02
"46","PT","GQ4CHJ","DENGUE","Undetermined",0,"PT-23-0502",2023-05-02
"47","HO","QGL4GB","DENGUE","Undetermined",0,"HO-23-0502",2023-05-02
"48","HO","QGL4GB","DENGUE","Undetermined",0,"HO-23-0502",2023-05-02
"49","LB","PE3K2W","DENGUE","Undetermined",0,"LB_TX1 005022023",2023-05-01
"50","LB","PE3K2W","DENGUE","Undetermined",0,"LB_TX1 005022023",2023-05-01
"51","WF","E7QL3P","DENGUE","Undetermined",0,"Wichita Falls-2023-05-02",2023-05-01
"52","WF","E7QL3P","DENGUE","Undetermined",0,"Wichita Falls-2023-05-02",2023-05-01
"53","B1","T3FHJB","DENGUE","Undetermined",0,"BSR5323",2023-05-02
"54","B1","T3FHJB","DENGUE","Undetermined",0,"BSR5323",2023-05-02
"55","B2","LVKBYC","DENGUE","Undetermined",0,"SABIB5323",2023-05-03
"56","B2","LVKBYC","DENGUE","Undetermined",0,"SABIB5323",2023-05-03
"57","JT","VXAFY6","ENTERO","Undetermined",0,"JT-23-13145",2023-05-01
"58","JT","VXAFY6","ENTERO","Undetermined",0,"JT-23-13145",2023-05-01
"59","FH","Y73Z97","ENTERO","Undetermined",0,"FH-23-13146",2023-05-01
"60","FH","Y73Z97","ENTERO","Undetermined",0,"FH-23-13146",2023-05-01
"61","HS","UMYHM4","ENTERO","Undetermined",0,"HS-23-13147",2023-05-01
"62","HS","UMYHM4","ENTERO","Undetermined",0,"HS-23-13147",2023-05-01
"63","RB","CJL3UA","ENTERO","Undetermined",0,"RB-23-13148",2023-05-01
"64","RB","CJL3UA","ENTERO","Undetermined",0,"RB-23-13148",2023-05-01
"65","AS","WKMNCK","ENTERO","Undetermined",0,"AS-23-0502",2023-05-02
"66","AS","WKMNCK","ENTERO","Undetermined",0,"AS-23-0502",2023-05-02
"67","TC","BDAEKQ","ENTERO","Undetermined",0,"TC-23-0502",2023-05-02
"68","TC","BDAEKQ","ENTERO","Undetermined",0,"TC-23-0502",2023-05-02
"69","MC","T8FAMA","ENTERO","Undetermined",0,"CC-23-0502",2023-05-02
"70","MC","T8FAMA","ENTERO","Undetermined",0,"CC-23-0502",2023-05-02
"71","IA","R5BVPW","ENTERO","Undetermined",0,"IA-23-0502",2023-05-02
"72","IA","R5BVPW","ENTERO","Undetermined",0,"IA-23-0502",2023-05-02
"73","PT","GQ4CHJ","ENTERO","Undetermined",0,"PT-23-0502",2023-05-02
"74","PT","GQ4CHJ","ENTERO","Undetermined",0,"PT-23-0502",2023-05-02
"75","HO","QGL4GB","ENTERO","Undetermined",0,"HO-23-0502",2023-05-02
"76","HO","QGL4GB","ENTERO","Undetermined",0,"HO-23-0502",2023-05-02
"77","LB","PE3K2W","ENTERO","Undetermined",0,"LB_TX1 005022023",2023-05-01
"78","LB","PE3K2W","ENTERO","Undetermined",0,"LB_TX1 005022023",2023-05-01
"79","WF","E7QL3P","ENTERO","Undetermined",0,"Wichita Falls-2023-05-02",2023-05-01
"80","WF","E7QL3P","ENTERO","Undetermined",0,"Wichita Falls-2023-05-02",2023-05-01
"81","B1","T3FHJB","ENTERO","Undetermined",0,"BSR5323",2023-05-02
"82","B1","T3FHJB","ENTERO","Undetermined",0,"BSR5323",2023-05-02
"83","B2","LVKBYC","ENTERO","Undetermined",0,"SABIB5323",2023-05-03
"84","B2","LVKBYC","ENTERO","Undetermined",0,"SABIB5323",2023-05-03
"85","JT","VXAFY6","MONKEYPOX","Undetermined",0,"JT-23-13145",2023-05-01
"86","JT","VXAFY6","MONKEYPOX","Undetermined",0,"JT-23-13145",2023-05-01
"87","FH","Y73Z97","MONKEYPOX","Undetermined",0,"FH-23-13146",2023-05-01
"88","FH","Y73Z97","MONKEYPOX","Undetermined",0,"FH-23-13146",2023-05-01
"89","HS","UMYHM4","MONKEYPOX","Undetermined",0,"HS-23-13147",2023-05-01
"90","HS","UMYHM4","MONKEYPOX","Undetermined",0,"HS-23-13147",2023-05-01
"91","RB","CJL3UA","MONKEYPOX","Undetermined",0,"RB-23-13148",2023-05-01
"92","RB","CJL3UA","MONKEYPOX","Undetermined",0,"RB-23-13148",2023-05-01
"93","AS","WKMNCK","MONKEYPOX","Undetermined",0,"AS-23-0502",2023-05-02
"94","AS","WKMNCK","MONKEYPOX","39.644",141.694,"AS-23-0502",2023-05-02
"95","TC","BDAEKQ","MONKEYPOX","Undetermined",0,"TC-23-0502",2023-05-02
"96","TC","BDAEKQ","MONKEYPOX","Undetermined",0,"TC-23-0502",2023-05-02
"97","MC","T8FAMA","MONKEYPOX","Undetermined",0,"CC-23-0502",2023-05-02
"98","MC","T8FAMA","MONKEYPOX","Undetermined",0,"CC-23-0502",2023-05-02
"99","IA","R5BVPW","MONKEYPOX","Undetermined",0,"IA-23-0502",2023-05-02
"100","IA","R5BVPW","MONKEYPOX","Undetermined",0,"IA-23-0502",2023-05-02
"101","PT","GQ4CHJ","MONKEYPOX","Undetermined",0,"PT-23-0502",2023-05-02
"102","PT","GQ4CHJ","MONKEYPOX","Undetermined",0,"PT-23-0502",2023-05-02
"103","HO","QGL4GB","MONKEYPOX","Undetermined",0,"HO-23-0502",2023-05-02
"104","HO","QGL4GB","MONKEYPOX","Undetermined",0,"HO-23-0502",2023-05-02
"105","LB","PE3K2W","MONKEYPOX","Undetermined",0,"LB_TX1 005022023",2023-05-01
"106","LB","PE3K2W","MONKEYPOX","38.569",314.867,"LB_TX1 005022023",2023-05-01
"107","WF","E7QL3P","MONKEYPOX","Undetermined",0,"Wichita Falls-2023-05-02",2023-05-01
"108","WF","E7QL3P","MONKEYPOX","Undetermined",0,"Wichita Falls-2023-05-02",2023-05-01
"109","B1","T3FHJB","MONKEYPOX","Undetermined",0,"BSR5323",2023-05-02
"110","B1","T3FHJB","MONKEYPOX","Undetermined",0,"BSR5323",2023-05-02
"111","B2","LVKBYC","MONKEYPOX","Undetermined",0,"SABIB5323",2023-05-03
"112","B2","LVKBYC","MONKEYPOX","Undetermined",0,"SABIB5323",2023-05-03
"113","JT","VXAFY6","NOROVIRUS","27.076",19235038.448,"JT-23-13145",2023-05-01
"114","JT","VXAFY6","NOROVIRUS","27.541",13951907.854,"JT-23-13145",2023-05-01
"115","FH","Y73Z97","NOROVIRUS","28.421",7591704.67,"FH-23-13146",2023-05-01
"116","FH","Y73Z97","NOROVIRUS","27.129",18553138.348,"FH-23-13146",2023-05-01
"117","HS","UMYHM4","NOROVIRUS","28.196",8869044.675,"HS-23-13147",2023-05-01
"118","HS","UMYHM4","NOROVIRUS","28.469",7342852.942,"HS-23-13147",2023-05-01
"119","RB","CJL3UA","NOROVIRUS","27.855",11228954.058,"RB-23-13148",2023-05-01
"120","RB","CJL3UA","NOROVIRUS","27.399",15386012.884,"RB-23-13148",2023-05-01
"121","AS","WKMNCK","NOROVIRUS","29.465",3689316.478,"AS-23-0502",2023-05-02
"122","AS","WKMNCK","NOROVIRUS","30.202",2215513.701,"AS-23-0502",2023-05-02
"123","TC","BDAEKQ","NOROVIRUS","28.322",8129035.21,"TC-23-0502",2023-05-02
"124","TC","BDAEKQ","NOROVIRUS","28.541",6987201.518,"TC-23-0502",2023-05-02
"125","MC","T8FAMA","NOROVIRUS","27.012",20112331.939,"CC-23-0502",2023-05-02
"126","MC","T8FAMA","NOROVIRUS","27.493",14424742.651,"CC-23-0502",2023-05-02
"127","IA","R5BVPW","NOROVIRUS","30.631",1646931.899,"IA-23-0502",2023-05-02
"128","IA","R5BVPW","NOROVIRUS","30.418",1907609.406,"IA-23-0502",2023-05-02
"129","PT","GQ4CHJ","NOROVIRUS","29.42",3804865.462,"PT-23-0502",2023-05-02
"130","PT","GQ4CHJ","NOROVIRUS","29.288",4167915.299,"PT-23-0502",2023-05-02
"131","HO","QGL4GB","NOROVIRUS","30.267",2118434.208,"HO-23-0502",2023-05-02
"132","HO","QGL4GB","NOROVIRUS","30.073",2421547.87,"HO-23-0502",2023-05-02
"133","LB","PE3K2W","NOROVIRUS","29.801",2922636.074,"LB_TX1 005022023",2023-05-01
"134","LB","PE3K2W","NOROVIRUS","30.153",2291231.834,"LB_TX1 005022023",2023-05-01
"135","WF","E7QL3P","NOROVIRUS","32.446",469397.212,"Wichita Falls-2023-05-02",2023-05-01
"136","WF","E7QL3P","NOROVIRUS","33.404",242087.819,"Wichita Falls-2023-05-02",2023-05-01
"137","B1","T3FHJB","NOROVIRUS","28.016",10042476.092,"BSR5323",2023-05-02
"138","B1","T3FHJB","NOROVIRUS","28.449",7444590.375,"BSR5323",2023-05-02
"139","B2","LVKBYC","NOROVIRUS","31.149",1150879.875,"SABIB5323",2023-05-03
"140","B2","LVKBYC","NOROVIRUS","30.317",2046161.485,"SABIB5323",2023-05-03
"141","JT","VXAFY6","RSVA","Undetermined",0,"JT-23-13145",2023-05-01
"142","JT","VXAFY6","RSVA","Undetermined",0,"JT-23-13145",2023-05-01
"143","FH","Y73Z97","RSVA","Undetermined",0,"FH-23-13146",2023-05-01
"144","FH","Y73Z97","RSVA","Undetermined",0,"FH-23-13146",2023-05-01
"145","HS","UMYHM4","RSVA","Undetermined",0,"HS-23-13147",2023-05-01
"146","HS","UMYHM4","RSVA","Undetermined",0,"HS-23-13147",2023-05-01
"147","RB","CJL3UA","RSVA","Undetermined",0,"RB-23-13148",2023-05-01
"148","RB","CJL3UA","RSVA","Undetermined",0,"RB-23-13148",2023-05-01
"149","AS","WKMNCK","RSVA","Undetermined",0,"AS-23-0502",2023-05-02
"150","AS","WKMNCK","RSVA","Undetermined",0,"AS-23-0502",2023-05-02
"151","TC","BDAEKQ","RSVA","Undetermined",0,"TC-23-0502",2023-05-02
"152","TC","BDAEKQ","RSVA","Undetermined",0,"TC-23-0502",2023-05-02
"153","MC","T8FAMA","RSVA","Undetermined",0,"CC-23-0502",2023-05-02
"154","MC","T8FAMA","RSVA","Undetermined",0,"CC-23-0502",2023-05-02
"155","IA","R5BVPW","RSVA","Undetermined",0,"IA-23-0502",2023-05-02
"156","IA","R5BVPW","RSVA","Undetermined",0,"IA-23-0502",2023-05-02
"157","PT","GQ4CHJ","RSVA","Undetermined",0,"PT-23-0502",2023-05-02
"158","PT","GQ4CHJ","RSVA","Undetermined",0,"PT-23-0502",2023-05-02
"159","HO","QGL4GB","RSVA","Undetermined",0,"HO-23-0502",2023-05-02
"160","HO","QGL4GB","RSVA","Undetermined",0,"HO-23-0502",2023-05-02
"161","LB","PE3K2W","RSVA","Undetermined",0,"LB_TX1 005022023",2023-05-01
"162","LB","PE3K2W","RSVA","Undetermined",0,"LB_TX1 005022023",2023-05-01
"163","WF","E7QL3P","RSVA","Undetermined",0,"Wichita Falls-2023-05-02",2023-05-01
"164","WF","E7QL3P","RSVA","Undetermined",0,"Wichita Falls-2023-05-02",2023-05-01
"165","B1","T3FHJB","RSVA","Undetermined",0,"BSR5323",2023-05-02
"166","B1","T3FHJB","RSVA","Undetermined",0,"BSR5323",2023-05-02
"167","B2","LVKBYC","RSVA","Undetermined",0,"SABIB5323",2023-05-03
"168","B2","LVKBYC","RSVA","Undetermined",0,"SABIB5323",2023-05-03
"169","JT","VXAFY6","RSVB","Undetermined",0,"JT-23-13145",2023-05-01
"170","JT","VXAFY6","RSVB","Undetermined",0,"JT-23-13145",2023-05-01
"171","FH","Y73Z97","RSVB","Undetermined",0,"FH-23-13146",2023-05-01
"172","FH","Y73Z97","RSVB","Undetermined",0,"FH-23-13146",2023-05-01
"173","HS","UMYHM4","RSVB","Undetermined",0,"HS-23-13147",2023-05-01
"174","HS","UMYHM4","RSVB","Undetermined",0,"HS-23-13147",2023-05-01
"175","RB","CJL3UA","RSVB","Undetermined",0,"RB-23-13148",2023-05-01
"176","RB","CJL3UA","RSVB","Undetermined",0,"RB-23-13148",2023-05-01
"177","AS","WKMNCK","RSVB","Undetermined",0,"AS-23-0502",2023-05-02
"178","AS","WKMNCK","RSVB","Undetermined",0,"AS-23-0502",2023-05-02
"179","TC","BDAEKQ","RSVB","Undetermined",0,"TC-23-0502",2023-05-02
"180","TC","BDAEKQ","RSVB","Undetermined",0,"TC-23-0502",2023-05-02
"181","MC","T8FAMA","RSVB","Undetermined",0,"CC-23-0502",2023-05-02
"182","MC","T8FAMA","RSVB","Undetermined",0,"CC-23-0502",2023-05-02
"183","IA","R5BVPW","RSVB","Undetermined",0,"IA-23-0502",2023-05-02
"184","IA","R5BVPW","RSVB","Undetermined",0,"IA-23-0502",2023-05-02
"185","PT","GQ4CHJ","RSVB","Undetermined",0,"PT-23-0502",2023-05-02
"186","PT","GQ4CHJ","RSVB","Undetermined",0,"PT-23-0502",2023-05-02
"187","HO","QGL4GB","RSVB","Undetermined",0,"HO-23-0502",2023-05-02
"188","HO","QGL4GB","RSVB","Undetermined",0,"HO-23-0502",2023-05-02
"189","LB","PE3K2W","RSVB","Undetermined",0,"LB_TX1 005022023",2023-05-01
"190","LB","PE3K2W","RSVB","Undetermined",0,"LB_TX1 005022023",2023-05-01
"191","WF","E7QL3P","RSVB","Undetermined",0,"Wichita Falls-2023-05-02",2023-05-01
"192","WF","E7QL3P","RSVB","Undetermined",0,"Wichita Falls-2023-05-02",2023-05-01
"193","B1","T3FHJB","RSVB","Undetermined",0,"BSR5323",2023-05-02
"194","B1","T3FHJB","RSVB","Undetermined",0,"BSR5323",2023-05-02
"195","B2","LVKBYC","RSVB","Undetermined",0,"SABIB5323",2023-05-03
"196","B2","LVKBYC","RSVB","Undetermined",0,"SABIB5323",2023-05-03
"197","JT","VXAFY6","WESTNILE","Undetermined",0,"JT-23-13145",2023-05-01
"198","JT","VXAFY6","WESTNILE","Undetermined",0,"JT-23-13145",2023-05-01
"199","FH","Y73Z97","WESTNILE","Undetermined",0,"FH-23-13146",2023-05-01
"200","FH","Y73Z97","WESTNILE","Undetermined",0,"FH-23-13146",2023-05-01
"201","HS","UMYHM4","WESTNILE","Undetermined",0,"HS-23-13147",2023-05-01
"202","HS","UMYHM4","WESTNILE","Undetermined",0,"HS-23-13147",2023-05-01
"203","RB","CJL3UA","WESTNILE","Undetermined",0,"RB-23-13148",2023-05-01
"204","RB","CJL3UA","WESTNILE","Undetermined",0,"RB-23-13148",2023-05-01
"205","AS","WKMNCK","WESTNILE","Undetermined",0,"AS-23-0502",2023-05-02
"206","AS","WKMNCK","WESTNILE","Undetermined",0,"AS-23-0502",2023-05-02
"207","TC","BDAEKQ","WESTNILE","Undetermined",0,"TC-23-0502",2023-05-02
"208","TC","BDAEKQ","WESTNILE","Undetermined",0,"TC-23-0502",2023-05-02
"209","MC","T8FAMA","WESTNILE","Undetermined",0,"CC-23-0502",2023-05-02
"210","MC","T8FAMA","WESTNILE","Undetermined",0,"CC-23-0502",2023-05-02
"211","IA","R5BVPW","WESTNILE","Undetermined",0,"IA-23-0502",2023-05-02
"212","IA","R5BVPW","WESTNILE","Undetermined",0,"IA-23-0502",2023-05-02
"213","PT","GQ4CHJ","WESTNILE","Undetermined",0,"PT-23-0502",2023-05-02
"214","PT","GQ4CHJ","WESTNILE","Undetermined",0,"PT-23-0502",2023-05-02
"215","HO","QGL4GB","WESTNILE","Undetermined",0,"HO-23-0502",2023-05-02
"216","HO","QGL4GB","WESTNILE","Undetermined",0,"HO-23-0502",2023-05-02
"217","LB","PE3K2W","WESTNILE","Undetermined",0,"LB_TX1 005022023",2023-05-01
"218","LB","PE3K2W","WESTNILE","Undetermined",0,"LB_TX1 005022023",2023-05-01
"219","WF","E7QL3P","WESTNILE","Undetermined",0,"Wichita Falls-2023-05-02",2023-05-01
"220","WF","E7QL3P","WESTNILE","Undetermined",0,"Wichita Falls-2023-05-02",2023-05-01
"221","B1","T3FHJB","WESTNILE","Undetermined",0,"BSR5323",2023-05-02
"222","B1","T3FHJB","WESTNILE","Undetermined",0,"BSR5323",2023-05-02
"223","B2","LVKBYC","WESTNILE","Undetermined",0,"SABIB5323",2023-05-03
"224","B2","LVKBYC","WESTNILE","Undetermined",0,"SABIB5323",2023-05-03
"225","JT","VXAFY6","ZIKA","Undetermined",0,"JT-23-13145",2023-05-01
"226","JT","VXAFY6","ZIKA","Undetermined",0,"JT-23-13145",2023-05-01
"227","FH","Y73Z97","ZIKA","Undetermined",0,"FH-23-13146",2023-05-01
"228","FH","Y73Z97","ZIKA","Undetermined",0,"FH-23-13146",2023-05-01
"229","HS","UMYHM4","ZIKA","Undetermined",0,"HS-23-13147",2023-05-01
"230","HS","UMYHM4","ZIKA","Undetermined",0,"HS-23-13147",2023-05-01
"231","RB","CJL3UA","ZIKA","Undetermined",0,"RB-23-13148",2023-05-01
"232","RB","CJL3UA","ZIKA","Undetermined",0,"RB-23-13148",2023-05-01
"233","AS","WKMNCK","ZIKA","Undetermined",0,"AS-23-0502",2023-05-02
"234","AS","WKMNCK","ZIKA","Undetermined",0,"AS-23-0502",2023-05-02
"235","TC","BDAEKQ","ZIKA","Undetermined",0,"TC-23-0502",2023-05-02
"236","TC","BDAEKQ","ZIKA","Undetermined",0,"TC-23-0502",2023-05-02
"237","MC","T8FAMA","ZIKA","Undetermined",0,"CC-23-0502",2023-05-02
"238","MC","T8FAMA","ZIKA","Undetermined",0,"CC-23-0502",2023-05-02
"239","IA","R5BVPW","ZIKA","Undetermined",0,"IA-23-0502",2023-05-02
"240","IA","R5BVPW","ZIKA","Undetermined",0,"IA-23-0502",2023-05-02
"241","PT","GQ4CHJ","ZIKA","Undetermined",0,"PT-23-0502",2023-05-02
"242","PT","GQ4CHJ","ZIKA","Undetermined",0,"PT-23-0502",2023-05-02
"243","HO","QGL4GB","ZIKA","Undetermined",0,"HO-23-0502",2023-05-02
"244","HO","QGL4GB","ZIKA","Undetermined",0,"HO-23-0502",2023-05-02
"245","LB","PE3K2W","ZIKA","Undetermined",0,"LB_TX1 005022023",2023-05-01
"246","LB","PE3K2W","ZIKA","Undetermined",0,"LB_TX1 005022023",2023-05-01
"247","WF","E7QL3P","ZIKA","Undetermined",0,"Wichita Falls-2023-05-02",2023-05-01
"248","WF","E7QL3P","ZIKA","Undetermined",0,"Wichita Falls-2023-05-02",2023-05-01
"249","B1","T3FHJB","ZIKA","Undetermined",0,"BSR5323",2023-05-02
"250","B1","T3FHJB","ZIKA","Undetermined",0,"BSR5323",2023-05-02
"251","B2","LVKBYC","ZIKA","Undetermined",0,"SABIB5323",2023-05-03
"252","B2","LVKBYC","ZIKA","Undetermined",0,"SABIB5323",2023-05-03
"253","JT","VXAFY6","INFLUENZAA","Undetermined",0,"JT-23-13145",2023-05-01
"254","JT","VXAFY6","INFLUENZAA","Undetermined",0,"JT-23-13145",2023-05-01
"255","FH","Y73Z97","INFLUENZAA","Undetermined",0,"FH-23-13146",2023-05-01
"256","FH","Y73Z97","INFLUENZAA","Undetermined",0,"FH-23-13146",2023-05-01
"257","HS","UMYHM4","INFLUENZAA","Undetermined",0,"HS-23-13147",2023-05-01
"258","HS","UMYHM4","INFLUENZAA","Undetermined",0,"HS-23-13147",2023-05-01
"259","RB","CJL3UA","INFLUENZAA","Undetermined",0,"RB-23-13148",2023-05-01
"260","RB","CJL3UA","INFLUENZAA","Undetermined",0,"RB-23-13148",2023-05-01
"261","AS","WKMNCK","INFLUENZAA","Undetermined",0,"AS-23-0502",2023-05-02
"262","AS","WKMNCK","INFLUENZAA","Undetermined",0,"AS-23-0502",2023-05-02
"263","TC","BDAEKQ","INFLUENZAA","Undetermined",0,"TC-23-0502",2023-05-02
"264","TC","BDAEKQ","INFLUENZAA","Undetermined",0,"TC-23-0502",2023-05-02
"265","MC","T8FAMA","INFLUENZAA","Undetermined",0,"CC-23-0502",2023-05-02
"266","MC","T8FAMA","INFLUENZAA","Undetermined",0,"CC-23-0502",2023-05-02
"267","IA","R5BVPW","INFLUENZAA","Undetermined",0,"IA-23-0502",2023-05-02
"268","IA","R5BVPW","INFLUENZAA","Undetermined",0,"IA-23-0502",2023-05-02
"269","PT","GQ4CHJ","INFLUENZAA","Undetermined",0,"PT-23-0502",2023-05-02
"270","PT","GQ4CHJ","INFLUENZAA","Undetermined",0,"PT-23-0502",2023-05-02
"271","HO","QGL4GB","INFLUENZAA","Undetermined",0,"HO-23-0502",2023-05-02
"272","HO","QGL4GB","INFLUENZAA","Undetermined",0,"HO-23-0502",2023-05-02
"273","LB","PE3K2W","INFLUENZAA","Undetermined",0,"LB_TX1 005022023",2023-05-01
"274","LB","PE3K2W","INFLUENZAA","Undetermined",0,"LB_TX1 005022023",2023-05-01
"275","WF","E7QL3P","INFLUENZAA","Undetermined",0,"Wichita Falls-2023-05-02",2023-05-01
"276","WF","E7QL3P","INFLUENZAA","Undetermined",0,"Wichita Falls-2023-05-02",2023-05-01
"277","B1","T3FHJB","INFLUENZAA","Undetermined",0,"BSR5323",2023-05-02
"278","B1","T3FHJB","INFLUENZAA","Undetermined",0,"BSR5323",2023-05-02
"279","B2","LVKBYC","INFLUENZAA","Undetermined",0,"SABIB5323",2023-05-03
"280","B2","LVKBYC","INFLUENZAA","Undetermined",0,"SABIB5323",2023-05-03
"281","JT","VXAFY6","INFLUENZAB","Undetermined",0,"JT-23-13145",2023-05-01
"282","JT","VXAFY6","INFLUENZAB","Undetermined",0,"JT-23-13145",2023-05-01
"283","FH","Y73Z97","INFLUENZAB","Undetermined",0,"FH-23-13146",2023-05-01
"284","FH","Y73Z97","INFLUENZAB","Undetermined",0,"FH-23-13146",2023-05-01
"285","HS","UMYHM4","INFLUENZAB","Undetermined",0,"HS-23-13147",2023-05-01
"286","HS","UMYHM4","INFLUENZAB","Undetermined",0,"HS-23-13147",2023-05-01
"287","RB","CJL3UA","INFLUENZAB","Undetermined",0,"RB-23-13148",2023-05-01
"288","RB","CJL3UA","INFLUENZAB","Undetermined",0,"RB-23-13148",2023-05-01
"289","AS","WKMNCK","INFLUENZAB","Undetermined",0,"AS-23-0502",2023-05-02
"290","AS","WKMNCK","INFLUENZAB","Undetermined",0,"AS-23-0502",2023-05-02
"291","TC","BDAEKQ","INFLUENZAB","Undetermined",0,"TC-23-0502",2023-05-02
"292","TC","BDAEKQ","INFLUENZAB","Undetermined",0,"TC-23-0502",2023-05-02
"293","MC","T8FAMA","INFLUENZAB","Undetermined",0,"CC-23-0502",2023-05-02
"294","MC","T8FAMA","INFLUENZAB","Undetermined",0,"CC-23-0502",2023-05-02
"295","IA","R5BVPW","INFLUENZAB","Undetermined",0,"IA-23-0502",2023-05-02
"296","IA","R5BVPW","INFLUENZAB","Undetermined",0,"IA-23-0502",2023-05-02
"297","PT","GQ4CHJ","INFLUENZAB","Undetermined",0,"PT-23-0502",2023-05-02
"298","PT","GQ4CHJ","INFLUENZAB","Undetermined",0,"PT-23-0502",2023-05-02
"299","HO","QGL4GB","INFLUENZAB","Undetermined",0,"HO-23-0502",2023-05-02
"300","HO","QGL4GB","INFLUENZAB","Undetermined",0,"HO-23-0502",2023-05-02
"301","LB","PE3K2W","INFLUENZAB","Undetermined",0,"LB_TX1 005022023",2023-05-01
"302","LB","PE3K2W","INFLUENZAB","Undetermined",0,"LB_TX1 005022023",2023-05-01
"303","WF","E7QL3P","INFLUENZAB","Undetermined",0,"Wichita Falls-2023-05-02",2023-05-01
"304","WF","E7QL3P","INFLUENZAB","Undetermined",0,"Wichita Falls-2023-05-02",2023-05-01
"305","B1","T3FHJB","INFLUENZAB","Undetermined",0,"BSR5323",2023-05-02
"306","B1","T3FHJB","INFLUENZAB","Undetermined",0,"BSR5323",2023-05-02
"307","B2","LVKBYC","INFLUENZAB","Undetermined",0,"SABIB5323",2023-05-03
"308","B2","LVKBYC","INFLUENZAB","Undetermined",0,"SABIB5323",2023-05-03
"309","JT","VXAFY6","SARSCOV2N1","30.392",136772.17,"JT-23-13145",2023-05-01
"310","JT","VXAFY6","SARSCOV2N1","30.363",139677.602,"JT-23-13145",2023-05-01
"311","FH","Y73Z97","SARSCOV2N1","30.17",161243.274,"FH-23-13146",2023-05-01
"312","FH","Y73Z97","SARSCOV2N1","29.75",220356.959,"FH-23-13146",2023-05-01
"313","HS","UMYHM4","SARSCOV2N1","29.359",294593.76,"HS-23-13147",2023-05-01
"314","HS","UMYHM4","SARSCOV2N1","29.371",291827.873,"HS-23-13147",2023-05-01
"315","RB","CJL3UA","SARSCOV2N1","30.355",140520.496,"RB-23-13148",2023-05-01
"316","RB","CJL3UA","SARSCOV2N1","29.767",217543.507,"RB-23-13148",2023-05-01
"317","AS","WKMNCK","SARSCOV2N1","32.618",26166.141,"AS-23-0502",2023-05-02
"318","AS","WKMNCK","SARSCOV2N1","32.374",31367.623,"AS-23-0502",2023-05-02
"319","TC","BDAEKQ","SARSCOV2N1","32.715",24356.262,"TC-23-0502",2023-05-02
"320","TC","BDAEKQ","SARSCOV2N1","32.449",29670.189,"TC-23-0502",2023-05-02
"321","MC","T8FAMA","SARSCOV2N1","30.605",116758.38,"CC-23-0502",2023-05-02
"322","MC","T8FAMA","SARSCOV2N1","30.715",107558.045,"CC-23-0502",2023-05-02
"323","IA","R5BVPW","SARSCOV2N1","30.572",119628.993,"IA-23-0502",2023-05-02
"324","IA","R5BVPW","SARSCOV2N1","30.883",94975.293,"IA-23-0502",2023-05-02
"325","PT","GQ4CHJ","SARSCOV2N1","35.845",2381.776,"PT-23-0502",2023-05-02
"326","PT","GQ4CHJ","SARSCOV2N1","33.758",11217.626,"PT-23-0502",2023-05-02
"327","HO","QGL4GB","SARSCOV2N1","32.548",27564.656,"HO-23-0502",2023-05-02
"328","HO","QGL4GB","SARSCOV2N1","32.67",25176.638,"HO-23-0502",2023-05-02
"329","LB","PE3K2W","SARSCOV2N1","31.009",86457.802,"LB_TX1 005022023",2023-05-01
"330","LB","PE3K2W","SARSCOV2N1","31.055",83559.867,"LB_TX1 005022023",2023-05-01
"331","WF","E7QL3P","SARSCOV2N1","34.22",7959.778,"Wichita Falls-2023-05-02",2023-05-01
"332","WF","E7QL3P","SARSCOV2N1","36.577",1382.737,"Wichita Falls-2023-05-02",2023-05-01
"333","B1","T3FHJB","SARSCOV2N1","31.174",76519.466,"BSR5323",2023-05-02
"334","B1","T3FHJB","SARSCOV2N1","31.389",65206.075,"BSR5323",2023-05-02
"335","B2","LVKBYC","SARSCOV2N1","33.487",13724.028,"SABIB5323",2023-05-03
"336","B2","LVKBYC","SARSCOV2N1","33.802",10860.166,"SABIB5323",2023-05-03
