"","LocationAbbr","CMMR_Barcode","Target","Ct","copiesperml","SampleName","date_of_collection"
"1","LB","FM2FEQ","CHIKUNGUNYA","Undetermined",0,"JT-23-21082",2023-07-06
"2","LB","FM2FEQ","CHIKUNGUNYA","Undetermined",0,"JT-23-21082",2023-07-06
"3","WF","DP3596","CHIKUNGUNYA","Undetermined",0,"FH-23-21083",2023-07-06
"4","WF","DP3596","CHIKUNGUNYA","Undetermined",0,"FH-23-21083",2023-07-06
"5","B1","NKHTVA","CHIKUNGUNYA","Undetermined",0,"HS-23-21084",2023-07-06
"6","B1","NKHTVA","CHIKUNGUNYA","Undetermined",0,"HS-23-21084",2023-07-06
"7","B2","VHREHM","CHIKUNGUNYA","Undetermined",0,"RB-23-21085",2023-07-06
"8","B2","VHREHM","CHIKUNGUNYA","Undetermined",0,"RB-23-21085",2023-07-06
"9","BC","BDJGHG","CHIKUNGUNYA","Undetermined",0,"AS-23-0706",2023-07-06
"10","BC","BDJGHG","CHIKUNGUNYA","Undetermined",0,"AS-23-0706",2023-07-06
"11","BW","ZW4G8Y","CHIKUNGUNYA","Undetermined",0,"TC-23-0706",2023-07-06
"12","BW","ZW4G8Y","CHIKUNGUNYA","Undetermined",0,"TC-23-0706",2023-07-06
"13","HW","MFUHYA","CHIKUNGUNYA","Undetermined",0,"MC-23-0706",2023-07-06
"14","HW","MFUHYA","CHIKUNGUNYA","Undetermined",0,"MC-23-0706",2023-07-06
"15","FR","PJSUTZ","CHIKUNGUNYA","Undetermined",0,"IA-23-0706",2023-07-06
"16","FR","PJSUTZ","CHIKUNGUNYA","Undetermined",0,"IA-23-0706",2023-07-06
"17","LB","FM2FEQ","DENGUE","Undetermined",0,"JT-23-21082",2023-07-06
"18","LB","FM2FEQ","DENGUE","Undetermined",0,"JT-23-21082",2023-07-06
"19","WF","DP3596","DENGUE","Undetermined",0,"FH-23-21083",2023-07-06
"20","WF","DP3596","DENGUE","Undetermined",0,"FH-23-21083",2023-07-06
"21","B1","NKHTVA","DENGUE","Undetermined",0,"HS-23-21084",2023-07-06
"22","B1","NKHTVA","DENGUE","Undetermined",0,"HS-23-21084",2023-07-06
"23","B2","VHREHM","DENGUE","Undetermined",0,"RB-23-21085",2023-07-06
"24","B2","VHREHM","DENGUE","Undetermined",0,"RB-23-21085",2023-07-06
"25","BC","BDJGHG","DENGUE","Undetermined",0,"AS-23-0706",2023-07-06
"26","BC","BDJGHG","DENGUE","Undetermined",0,"AS-23-0706",2023-07-06
"27","BW","ZW4G8Y","DENGUE","Undetermined",0,"TC-23-0706",2023-07-06
"28","BW","ZW4G8Y","DENGUE","Undetermined",0,"TC-23-0706",2023-07-06
"29","HW","MFUHYA","DENGUE","Undetermined",0,"MC-23-0706",2023-07-06
"30","HW","MFUHYA","DENGUE","Undetermined",0,"MC-23-0706",2023-07-06
"31","FR","PJSUTZ","DENGUE","Undetermined",0,"IA-23-0706",2023-07-06
"32","FR","PJSUTZ","DENGUE","Undetermined",0,"IA-23-0706",2023-07-06
"33","LB","FM2FEQ","ENTERO","Undetermined",0,"JT-23-21082",2023-07-06
"34","LB","FM2FEQ","ENTERO","Undetermined",0,"JT-23-21082",2023-07-06
"35","WF","DP3596","ENTERO","Undetermined",0,"FH-23-21083",2023-07-06
"36","WF","DP3596","ENTERO","Undetermined",0,"FH-23-21083",2023-07-06
"37","B1","NKHTVA","ENTERO","Undetermined",0,"HS-23-21084",2023-07-06
"38","B1","NKHTVA","ENTERO","Undetermined",0,"HS-23-21084",2023-07-06
"39","B2","VHREHM","ENTERO","Undetermined",0,"RB-23-21085",2023-07-06
"40","B2","VHREHM","ENTERO","Undetermined",0,"RB-23-21085",2023-07-06
"41","BC","BDJGHG","ENTERO","Undetermined",0,"AS-23-0706",2023-07-06
"42","BC","BDJGHG","ENTERO","Undetermined",0,"AS-23-0706",2023-07-06
"43","BW","ZW4G8Y","ENTERO","Undetermined",0,"TC-23-0706",2023-07-06
"44","BW","ZW4G8Y","ENTERO","Undetermined",0,"TC-23-0706",2023-07-06
"45","HW","MFUHYA","ENTERO","Undetermined",0,"MC-23-0706",2023-07-06
"46","HW","MFUHYA","ENTERO","Undetermined",0,"MC-23-0706",2023-07-06
"47","FR","PJSUTZ","ENTERO","Undetermined",0,"IA-23-0706",2023-07-06
"48","FR","PJSUTZ","ENTERO","Undetermined",0,"IA-23-0706",2023-07-06
"49","LB","FM2FEQ","NOROVIRUS","32.188",561265.224,"JT-23-21082",2023-07-06
"50","LB","FM2FEQ","NOROVIRUS","33.328",255044.276,"JT-23-21082",2023-07-06
"51","WF","DP3596","NOROVIRUS","38.194",8817.07,"FH-23-21083",2023-07-06
"52","WF","DP3596","NOROVIRUS","35.079",76016.851,"FH-23-21083",2023-07-06
"53","B1","NKHTVA","NOROVIRUS","30.131",2327801.328,"HS-23-21084",2023-07-06
"54","B1","NKHTVA","NOROVIRUS","30.044",2470767.03,"HS-23-21084",2023-07-06
"55","B2","VHREHM","NOROVIRUS","27.782",11806225.574,"RB-23-21085",2023-07-06
"56","B2","VHREHM","NOROVIRUS","28.791",5878794.158,"RB-23-21085",2023-07-06
"57","BC","BDJGHG","NOROVIRUS","31.156",1145798.037,"AS-23-0706",2023-07-06
"58","BC","BDJGHG","NOROVIRUS","31.373",985740.791,"AS-23-0706",2023-07-06
"59","BW","ZW4G8Y","NOROVIRUS","32.462",464361.09,"TC-23-0706",2023-07-06
"60","BW","ZW4G8Y","NOROVIRUS","34.867",88018.414,"TC-23-0706",2023-07-06
"61","HW","MFUHYA","NOROVIRUS","30.772",1493940.493,"MC-23-0706",2023-07-06
"62","HW","MFUHYA","NOROVIRUS","31.112",1181030.809,"MC-23-0706",2023-07-06
"63","FR","PJSUTZ","NOROVIRUS","32.174",566685.771,"IA-23-0706",2023-07-06
"64","FR","PJSUTZ","NOROVIRUS","31.492",907876.956,"IA-23-0706",2023-07-06
"65","LB","FM2FEQ","RSVA","Undetermined",0,"JT-23-21082",2023-07-06
"66","LB","FM2FEQ","RSVA","Undetermined",0,"JT-23-21082",2023-07-06
"67","WF","DP3596","RSVA","Undetermined",0,"FH-23-21083",2023-07-06
"68","WF","DP3596","RSVA","Undetermined",0,"FH-23-21083",2023-07-06
"69","B1","NKHTVA","RSVA","Undetermined",0,"HS-23-21084",2023-07-06
"70","B1","NKHTVA","RSVA","Undetermined",0,"HS-23-21084",2023-07-06
"71","B2","VHREHM","RSVA","Undetermined",0,"RB-23-21085",2023-07-06
"72","B2","VHREHM","RSVA","Undetermined",0,"RB-23-21085",2023-07-06
"73","BC","BDJGHG","RSVA","Undetermined",0,"AS-23-0706",2023-07-06
"74","BC","BDJGHG","RSVA","Undetermined",0,"AS-23-0706",2023-07-06
"75","BW","ZW4G8Y","RSVA","Undetermined",0,"TC-23-0706",2023-07-06
"76","BW","ZW4G8Y","RSVA","Undetermined",0,"TC-23-0706",2023-07-06
"77","HW","MFUHYA","RSVA","Undetermined",0,"MC-23-0706",2023-07-06
"78","HW","MFUHYA","RSVA","Undetermined",0,"MC-23-0706",2023-07-06
"79","FR","PJSUTZ","RSVA","Undetermined",0,"IA-23-0706",2023-07-06
"80","FR","PJSUTZ","RSVA","Undetermined",0,"IA-23-0706",2023-07-06
"81","LB","FM2FEQ","RSVB","Undetermined",0,"JT-23-21082",2023-07-06
"82","LB","FM2FEQ","RSVB","Undetermined",0,"JT-23-21082",2023-07-06
"83","WF","DP3596","RSVB","Undetermined",0,"FH-23-21083",2023-07-06
"84","WF","DP3596","RSVB","Undetermined",0,"FH-23-21083",2023-07-06
"85","B1","NKHTVA","RSVB","Undetermined",0,"HS-23-21084",2023-07-06
"86","B1","NKHTVA","RSVB","Undetermined",0,"HS-23-21084",2023-07-06
"87","B2","VHREHM","RSVB","Undetermined",0,"RB-23-21085",2023-07-06
"88","B2","VHREHM","RSVB","Undetermined",0,"RB-23-21085",2023-07-06
"89","BC","BDJGHG","RSVB","Undetermined",0,"AS-23-0706",2023-07-06
"90","BC","BDJGHG","RSVB","Undetermined",0,"AS-23-0706",2023-07-06
"91","BW","ZW4G8Y","RSVB","36.951",168.637,"TC-23-0706",2023-07-06
"92","BW","ZW4G8Y","RSVB","Undetermined",0,"TC-23-0706",2023-07-06
"93","HW","MFUHYA","RSVB","Undetermined",0,"MC-23-0706",2023-07-06
"94","HW","MFUHYA","RSVB","Undetermined",0,"MC-23-0706",2023-07-06
"95","FR","PJSUTZ","RSVB","34.003",1271.376,"IA-23-0706",2023-07-06
"96","FR","PJSUTZ","RSVB","36.258",271.183,"IA-23-0706",2023-07-06
"97","LB","FM2FEQ","WESTNILE","Undetermined",0,"JT-23-21082",2023-07-06
"98","LB","FM2FEQ","WESTNILE","Undetermined",0,"JT-23-21082",2023-07-06
"99","WF","DP3596","WESTNILE","Undetermined",0,"FH-23-21083",2023-07-06
"100","WF","DP3596","WESTNILE","Undetermined",0,"FH-23-21083",2023-07-06
"101","B1","NKHTVA","WESTNILE","Undetermined",0,"HS-23-21084",2023-07-06
"102","B1","NKHTVA","WESTNILE","Undetermined",0,"HS-23-21084",2023-07-06
"103","B2","VHREHM","WESTNILE","Undetermined",0,"RB-23-21085",2023-07-06
"104","B2","VHREHM","WESTNILE","Undetermined",0,"RB-23-21085",2023-07-06
"105","BC","BDJGHG","WESTNILE","Undetermined",0,"AS-23-0706",2023-07-06
"106","BC","BDJGHG","WESTNILE","Undetermined",0,"AS-23-0706",2023-07-06
"107","BW","ZW4G8Y","WESTNILE","Undetermined",0,"TC-23-0706",2023-07-06
"108","BW","ZW4G8Y","WESTNILE","Undetermined",0,"TC-23-0706",2023-07-06
"109","HW","MFUHYA","WESTNILE","Undetermined",0,"MC-23-0706",2023-07-06
"110","HW","MFUHYA","WESTNILE","Undetermined",0,"MC-23-0706",2023-07-06
"111","FR","PJSUTZ","WESTNILE","Undetermined",0,"IA-23-0706",2023-07-06
"112","FR","PJSUTZ","WESTNILE","Undetermined",0,"IA-23-0706",2023-07-06
"113","LB","FM2FEQ","ZIKA","Undetermined",0,"JT-23-21082",2023-07-06
"114","LB","FM2FEQ","ZIKA","Undetermined",0,"JT-23-21082",2023-07-06
"115","WF","DP3596","ZIKA","Undetermined",0,"FH-23-21083",2023-07-06
"116","WF","DP3596","ZIKA","Undetermined",0,"FH-23-21083",2023-07-06
"117","B1","NKHTVA","ZIKA","Undetermined",0,"HS-23-21084",2023-07-06
"118","B1","NKHTVA","ZIKA","Undetermined",0,"HS-23-21084",2023-07-06
"119","B2","VHREHM","ZIKA","Undetermined",0,"RB-23-21085",2023-07-06
"120","B2","VHREHM","ZIKA","Undetermined",0,"RB-23-21085",2023-07-06
"121","BC","BDJGHG","ZIKA","Undetermined",0,"AS-23-0706",2023-07-06
"122","BC","BDJGHG","ZIKA","Undetermined",0,"AS-23-0706",2023-07-06
"123","BW","ZW4G8Y","ZIKA","Undetermined",0,"TC-23-0706",2023-07-06
"124","BW","ZW4G8Y","ZIKA","Undetermined",0,"TC-23-0706",2023-07-06
"125","HW","MFUHYA","ZIKA","Undetermined",0,"MC-23-0706",2023-07-06
"126","HW","MFUHYA","ZIKA","Undetermined",0,"MC-23-0706",2023-07-06
"127","FR","PJSUTZ","ZIKA","Undetermined",0,"IA-23-0706",2023-07-06
"128","FR","PJSUTZ","ZIKA","Undetermined",0,"IA-23-0706",2023-07-06
"129","LB","FM2FEQ","MONKEYPOX","Undetermined",0,"JT-23-21082",2023-07-06
"130","LB","FM2FEQ","MONKEYPOX","Undetermined",0,"JT-23-21082",2023-07-06
"131","WF","DP3596","MONKEYPOX","Undetermined",0,"FH-23-21083",2023-07-06
"132","WF","DP3596","MONKEYPOX","Undetermined",0,"FH-23-21083",2023-07-06
"133","B1","NKHTVA","MONKEYPOX","Undetermined",0,"HS-23-21084",2023-07-06
"134","B1","NKHTVA","MONKEYPOX","Undetermined",0,"HS-23-21084",2023-07-06
"135","B2","VHREHM","MONKEYPOX","Undetermined",0,"RB-23-21085",2023-07-06
"136","B2","VHREHM","MONKEYPOX","Undetermined",0,"RB-23-21085",2023-07-06
"137","BC","BDJGHG","MONKEYPOX","Undetermined",0,"AS-23-0706",2023-07-06
"138","BC","BDJGHG","MONKEYPOX","Undetermined",0,"AS-23-0706",2023-07-06
"139","BW","ZW4G8Y","MONKEYPOX","Undetermined",0,"TC-23-0706",2023-07-06
"140","BW","ZW4G8Y","MONKEYPOX","Undetermined",0,"TC-23-0706",2023-07-06
"141","HW","MFUHYA","MONKEYPOX","Undetermined",0,"MC-23-0706",2023-07-06
"142","HW","MFUHYA","MONKEYPOX","Undetermined",0,"MC-23-0706",2023-07-06
"143","FR","PJSUTZ","MONKEYPOX","Undetermined",0,"IA-23-0706",2023-07-06
"144","FR","PJSUTZ","MONKEYPOX","Undetermined",0,"IA-23-0706",2023-07-06
"145","LB","FM2FEQ","INFLUENZAA","Undetermined",0,"JT-23-21082",2023-07-06
"146","LB","FM2FEQ","INFLUENZAA","Undetermined",0,"JT-23-21082",2023-07-06
"147","WF","DP3596","INFLUENZAA","Undetermined",0,"FH-23-21083",2023-07-06
"148","WF","DP3596","INFLUENZAA","Undetermined",0,"FH-23-21083",2023-07-06
"149","B1","NKHTVA","INFLUENZAA","Undetermined",0,"HS-23-21084",2023-07-06
"150","B1","NKHTVA","INFLUENZAA","Undetermined",0,"HS-23-21084",2023-07-06
"151","B2","VHREHM","INFLUENZAA","Undetermined",0,"RB-23-21085",2023-07-06
"152","B2","VHREHM","INFLUENZAA","Undetermined",0,"RB-23-21085",2023-07-06
"153","BC","BDJGHG","INFLUENZAA","Undetermined",0,"AS-23-0706",2023-07-06
"154","BC","BDJGHG","INFLUENZAA","Undetermined",0,"AS-23-0706",2023-07-06
"155","BW","ZW4G8Y","INFLUENZAA","Undetermined",0,"TC-23-0706",2023-07-06
"156","BW","ZW4G8Y","INFLUENZAA","Undetermined",0,"TC-23-0706",2023-07-06
"157","HW","MFUHYA","INFLUENZAA","Undetermined",0,"MC-23-0706",2023-07-06
"158","HW","MFUHYA","INFLUENZAA","Undetermined",0,"MC-23-0706",2023-07-06
"159","FR","PJSUTZ","INFLUENZAA","Undetermined",0,"IA-23-0706",2023-07-06
"160","FR","PJSUTZ","INFLUENZAA","Undetermined",0,"IA-23-0706",2023-07-06
"161","LB","FM2FEQ","INFLUENZAB","Undetermined",0,"JT-23-21082",2023-07-06
"162","LB","FM2FEQ","INFLUENZAB","Undetermined",0,"JT-23-21082",2023-07-06
"163","WF","DP3596","INFLUENZAB","Undetermined",0,"FH-23-21083",2023-07-06
"164","WF","DP3596","INFLUENZAB","Undetermined",0,"FH-23-21083",2023-07-06
"165","B1","NKHTVA","INFLUENZAB","Undetermined",0,"HS-23-21084",2023-07-06
"166","B1","NKHTVA","INFLUENZAB","Undetermined",0,"HS-23-21084",2023-07-06
"167","B2","VHREHM","INFLUENZAB","Undetermined",0,"RB-23-21085",2023-07-06
"168","B2","VHREHM","INFLUENZAB","Undetermined",0,"RB-23-21085",2023-07-06
"169","BC","BDJGHG","INFLUENZAB","Undetermined",0,"AS-23-0706",2023-07-06
"170","BC","BDJGHG","INFLUENZAB","Undetermined",0,"AS-23-0706",2023-07-06
"171","BW","ZW4G8Y","INFLUENZAB","Undetermined",0,"TC-23-0706",2023-07-06
"172","BW","ZW4G8Y","INFLUENZAB","Undetermined",0,"TC-23-0706",2023-07-06
"173","HW","MFUHYA","INFLUENZAB","Undetermined",0,"MC-23-0706",2023-07-06
"174","HW","MFUHYA","INFLUENZAB","Undetermined",0,"MC-23-0706",2023-07-06
"175","FR","PJSUTZ","INFLUENZAB","Undetermined",0,"IA-23-0706",2023-07-06
"176","FR","PJSUTZ","INFLUENZAB","Undetermined",0,"IA-23-0706",2023-07-06
"177","LB","FM2FEQ","SARSCOV2N1","33.934",9845.177,"JT-23-21082",2023-07-06
"178","LB","FM2FEQ","SARSCOV2N1","33.611",12518.322,"JT-23-21082",2023-07-06
"179","WF","DP3596","SARSCOV2N1","34.055",8997.602,"FH-23-21083",2023-07-06
"180","WF","DP3596","SARSCOV2N1","32.765",23466.556,"FH-23-21083",2023-07-06
"181","B1","NKHTVA","SARSCOV2N1","31.764",49368.434,"HS-23-21084",2023-07-06
"182","B1","NKHTVA","SARSCOV2N1","32.215",35312.887,"HS-23-21084",2023-07-06
"183","B2","VHREHM","SARSCOV2N1","37.326",792.733,"RB-23-21085",2023-07-06
"184","B2","VHREHM","SARSCOV2N1","Undetermined",0,"RB-23-21085",2023-07-06
"185","BC","BDJGHG","SARSCOV2N1","31.899",44634.961,"AS-23-0706",2023-07-06
"186","BC","BDJGHG","SARSCOV2N1","31.951",42953.419,"AS-23-0706",2023-07-06
"187","BW","ZW4G8Y","SARSCOV2N1","33.666",12019.903,"TC-23-0706",2023-07-06
"188","BW","ZW4G8Y","SARSCOV2N1","33.985",9482.726,"TC-23-0706",2023-07-06
"189","HW","MFUHYA","SARSCOV2N1","37.023",993.037,"MC-23-0706",2023-07-06
"190","HW","MFUHYA","SARSCOV2N1","39.553",151.603,"MC-23-0706",2023-07-06
"191","FR","PJSUTZ","SARSCOV2N1","35.188",3880.33,"IA-23-0706",2023-07-06
"192","FR","PJSUTZ","SARSCOV2N1","34.558",6195.299,"IA-23-0706",2023-07-06
"193","JT","PFGRWE","CHIKUNGUNYA","Undetermined",0,"PT-23-0706",2023-07-06
"194","JT","PFGRWE","CHIKUNGUNYA","Undetermined",0,"PT-23-0706",2023-07-06
"195","FH","Q4MXHS","CHIKUNGUNYA","Undetermined",0,"HO-23-0706",2023-07-06
"196","FH","Q4MXHS","CHIKUNGUNYA","Undetermined",0,"HO-23-0706",2023-07-06
"197","HS","M2R98S","CHIKUNGUNYA","Undetermined",0,"LB_TX1 007062023",2023-07-06
"198","HS","M2R98S","CHIKUNGUNYA","Undetermined",0,"LB_TX1 007062023",2023-07-06
"199","RB","A9Y94T","CHIKUNGUNYA","Undetermined",0,"BSR3823",2023-07-06
"200","RB","A9Y94T","CHIKUNGUNYA","Undetermined",0,"BSR3823",2023-07-06
"201","LB","G9BBYC","CHIKUNGUNYA","Undetermined",0,"SABIB3823",2023-07-06
"202","LB","G9BBYC","CHIKUNGUNYA","Undetermined",0,"SABIB3823",2023-07-06
"203","WF","QKDWNF","CHIKUNGUNYA","Undetermined",0,"BTC-2023-07-05",2023-07-05
"204","WF","QKDWNF","CHIKUNGUNYA","Undetermined",0,"BTC-2023-07-05",2023-07-05
"205","B1","L2N2CZ","CHIKUNGUNYA","Undetermined",0,"BTW-2023-07-05",2023-07-05
"206","B1","L2N2CZ","CHIKUNGUNYA","Undetermined",0,"BTW-2023-07-05",2023-07-05
"207","B2","ZR846F","CHIKUNGUNYA","Undetermined",0,"HW-2023-07-05",2023-07-05
"208","B2","ZR846F","CHIKUNGUNYA","Undetermined",0,"HW-2023-07-05",2023-07-05
"209","BC","WLFVVY","CHIKUNGUNYA","Undetermined",0,"Fon-2023-07-05",2023-07-05
"210","BC","WLFVVY","CHIKUNGUNYA","Undetermined",0,"Fon-2023-07-05",2023-07-05
"211","JT","PFGRWE","DENGUE","Undetermined",0,"PT-23-0706",2023-07-06
"212","JT","PFGRWE","DENGUE","Undetermined",0,"PT-23-0706",2023-07-06
"213","FH","Q4MXHS","DENGUE","Undetermined",0,"HO-23-0706",2023-07-06
"214","FH","Q4MXHS","DENGUE","Undetermined",0,"HO-23-0706",2023-07-06
"215","HS","M2R98S","DENGUE","Undetermined",0,"LB_TX1 007062023",2023-07-06
"216","HS","M2R98S","DENGUE","Undetermined",0,"LB_TX1 007062023",2023-07-06
"217","RB","A9Y94T","DENGUE","Undetermined",0,"BSR3823",2023-07-06
"218","RB","A9Y94T","DENGUE","Undetermined",0,"BSR3823",2023-07-06
"219","LB","G9BBYC","DENGUE","Undetermined",0,"SABIB3823",2023-07-06
"220","LB","G9BBYC","DENGUE","Undetermined",0,"SABIB3823",2023-07-06
"221","WF","QKDWNF","DENGUE","Undetermined",0,"BTC-2023-07-05",2023-07-05
"222","WF","QKDWNF","DENGUE","Undetermined",0,"BTC-2023-07-05",2023-07-05
"223","B1","L2N2CZ","DENGUE","Undetermined",0,"BTW-2023-07-05",2023-07-05
"224","B1","L2N2CZ","DENGUE","Undetermined",0,"BTW-2023-07-05",2023-07-05
"225","B2","ZR846F","DENGUE","Undetermined",0,"HW-2023-07-05",2023-07-05
"226","B2","ZR846F","DENGUE","Undetermined",0,"HW-2023-07-05",2023-07-05
"227","BC","WLFVVY","DENGUE","Undetermined",0,"Fon-2023-07-05",2023-07-05
"228","BC","WLFVVY","DENGUE","Undetermined",0,"Fon-2023-07-05",2023-07-05
"229","JT","PFGRWE","ENTERO","Undetermined",0,"PT-23-0706",2023-07-06
"230","JT","PFGRWE","ENTERO","Undetermined",0,"PT-23-0706",2023-07-06
"231","FH","Q4MXHS","ENTERO","Undetermined",0,"HO-23-0706",2023-07-06
"232","FH","Q4MXHS","ENTERO","Undetermined",0,"HO-23-0706",2023-07-06
"233","HS","M2R98S","ENTERO","Undetermined",0,"LB_TX1 007062023",2023-07-06
"234","HS","M2R98S","ENTERO","Undetermined",0,"LB_TX1 007062023",2023-07-06
"235","RB","A9Y94T","ENTERO","Undetermined",0,"BSR3823",2023-07-06
"236","RB","A9Y94T","ENTERO","Undetermined",0,"BSR3823",2023-07-06
"237","LB","G9BBYC","ENTERO","Undetermined",0,"SABIB3823",2023-07-06
"238","LB","G9BBYC","ENTERO","Undetermined",0,"SABIB3823",2023-07-06
"239","WF","QKDWNF","ENTERO","Undetermined",0,"BTC-2023-07-05",2023-07-05
"240","WF","QKDWNF","ENTERO","Undetermined",0,"BTC-2023-07-05",2023-07-05
"241","B1","L2N2CZ","ENTERO","Undetermined",0,"BTW-2023-07-05",2023-07-05
"242","B1","L2N2CZ","ENTERO","Undetermined",0,"BTW-2023-07-05",2023-07-05
"243","B2","ZR846F","ENTERO","Undetermined",0,"HW-2023-07-05",2023-07-05
"244","B2","ZR846F","ENTERO","Undetermined",0,"HW-2023-07-05",2023-07-05
"245","BC","WLFVVY","ENTERO","Undetermined",0,"Fon-2023-07-05",2023-07-05
"246","BC","WLFVVY","ENTERO","Undetermined",0,"Fon-2023-07-05",2023-07-05
"247","JT","PFGRWE","NOROVIRUS","30.085",2402036.184,"PT-23-0706",2023-07-06
"248","JT","PFGRWE","NOROVIRUS","30.49",1815967.508,"PT-23-0706",2023-07-06
"249","FH","Q4MXHS","NOROVIRUS","29.799",2928300.093,"HO-23-0706",2023-07-06
"250","FH","Q4MXHS","NOROVIRUS","29.71",3113308.719,"HO-23-0706",2023-07-06
"251","HS","M2R98S","NOROVIRUS","30.266",2119313.286,"LB_TX1 007062023",2023-07-06
"252","HS","M2R98S","NOROVIRUS","30.013",2524126.27,"LB_TX1 007062023",2023-07-06
"253","RB","A9Y94T","NOROVIRUS","30.368",1974851.755,"BSR3823",2023-07-06
"254","RB","A9Y94T","NOROVIRUS","29.77",2986579.913,"BSR3823",2023-07-06
"255","LB","G9BBYC","NOROVIRUS","Undetermined",0,"SABIB3823",2023-07-06
"256","LB","G9BBYC","NOROVIRUS","38.027",9902.497,"SABIB3823",2023-07-06
"257","WF","QKDWNF","NOROVIRUS","Undetermined",0,"BTC-2023-07-05",2023-07-05
"258","WF","QKDWNF","NOROVIRUS","38.588",6717.167,"BTC-2023-07-05",2023-07-05
"259","B1","L2N2CZ","NOROVIRUS","30.927",1341549.1,"BTW-2023-07-05",2023-07-05
"260","B1","L2N2CZ","NOROVIRUS","31.5",902806.257,"BTW-2023-07-05",2023-07-05
"261","B2","ZR846F","NOROVIRUS","Undetermined",0,"HW-2023-07-05",2023-07-05
"262","B2","ZR846F","NOROVIRUS","30.821",1443671.67,"HW-2023-07-05",2023-07-05
"263","BC","WLFVVY","NOROVIRUS","31.153",1147859.821,"Fon-2023-07-05",2023-07-05
"264","BC","WLFVVY","NOROVIRUS","30.968",1304591.186,"Fon-2023-07-05",2023-07-05
"265","JT","PFGRWE","RSVA","Undetermined",0,"PT-23-0706",2023-07-06
"266","JT","PFGRWE","RSVA","Undetermined",0,"PT-23-0706",2023-07-06
"267","FH","Q4MXHS","RSVA","Undetermined",0,"HO-23-0706",2023-07-06
"268","FH","Q4MXHS","RSVA","Undetermined",0,"HO-23-0706",2023-07-06
"269","HS","M2R98S","RSVA","Undetermined",0,"LB_TX1 007062023",2023-07-06
"270","HS","M2R98S","RSVA","Undetermined",0,"LB_TX1 007062023",2023-07-06
"271","RB","A9Y94T","RSVA","Undetermined",0,"BSR3823",2023-07-06
"272","RB","A9Y94T","RSVA","Undetermined",0,"BSR3823",2023-07-06
"273","LB","G9BBYC","RSVA","Undetermined",0,"SABIB3823",2023-07-06
"274","LB","G9BBYC","RSVA","Undetermined",0,"SABIB3823",2023-07-06
"275","WF","QKDWNF","RSVA","Undetermined",0,"BTC-2023-07-05",2023-07-05
"276","WF","QKDWNF","RSVA","Undetermined",0,"BTC-2023-07-05",2023-07-05
"277","B1","L2N2CZ","RSVA","Undetermined",0,"BTW-2023-07-05",2023-07-05
"278","B1","L2N2CZ","RSVA","Undetermined",0,"BTW-2023-07-05",2023-07-05
"279","B2","ZR846F","RSVA","Undetermined",0,"HW-2023-07-05",2023-07-05
"280","B2","ZR846F","RSVA","Undetermined",0,"HW-2023-07-05",2023-07-05
"281","BC","WLFVVY","RSVA","Undetermined",0,"Fon-2023-07-05",2023-07-05
"282","BC","WLFVVY","RSVA","Undetermined",0,"Fon-2023-07-05",2023-07-05
"283","JT","PFGRWE","RSVB","Undetermined",0,"PT-23-0706",2023-07-06
"284","JT","PFGRWE","RSVB","Undetermined",0,"PT-23-0706",2023-07-06
"285","FH","Q4MXHS","RSVB","Undetermined",0,"HO-23-0706",2023-07-06
"286","FH","Q4MXHS","RSVB","Undetermined",0,"HO-23-0706",2023-07-06
"287","HS","M2R98S","RSVB","Undetermined",0,"LB_TX1 007062023",2023-07-06
"288","HS","M2R98S","RSVB","Undetermined",0,"LB_TX1 007062023",2023-07-06
"289","RB","A9Y94T","RSVB","Undetermined",0,"BSR3823",2023-07-06
"290","RB","A9Y94T","RSVB","Undetermined",0,"BSR3823",2023-07-06
"291","LB","G9BBYC","RSVB","Undetermined",0,"SABIB3823",2023-07-06
"292","LB","G9BBYC","RSVB","Undetermined",0,"SABIB3823",2023-07-06
"293","WF","QKDWNF","RSVB","Undetermined",0,"BTC-2023-07-05",2023-07-05
"294","WF","QKDWNF","RSVB","Undetermined",0,"BTC-2023-07-05",2023-07-05
"295","B1","L2N2CZ","RSVB","Undetermined",0,"BTW-2023-07-05",2023-07-05
"296","B1","L2N2CZ","RSVB","Undetermined",0,"BTW-2023-07-05",2023-07-05
"297","B2","ZR846F","RSVB","Undetermined",0,"HW-2023-07-05",2023-07-05
"298","B2","ZR846F","RSVB","Undetermined",0,"HW-2023-07-05",2023-07-05
"299","BC","WLFVVY","RSVB","Undetermined",0,"Fon-2023-07-05",2023-07-05
"300","BC","WLFVVY","RSVB","Undetermined",0,"Fon-2023-07-05",2023-07-05
"301","JT","PFGRWE","WESTNILE","Undetermined",0,"PT-23-0706",2023-07-06
"302","JT","PFGRWE","WESTNILE","Undetermined",0,"PT-23-0706",2023-07-06
"303","FH","Q4MXHS","WESTNILE","Undetermined",0,"HO-23-0706",2023-07-06
"304","FH","Q4MXHS","WESTNILE","Undetermined",0,"HO-23-0706",2023-07-06
"305","HS","M2R98S","WESTNILE","Undetermined",0,"LB_TX1 007062023",2023-07-06
"306","HS","M2R98S","WESTNILE","Undetermined",0,"LB_TX1 007062023",2023-07-06
"307","RB","A9Y94T","WESTNILE","Undetermined",0,"BSR3823",2023-07-06
"308","RB","A9Y94T","WESTNILE","Undetermined",0,"BSR3823",2023-07-06
"309","LB","G9BBYC","WESTNILE","Undetermined",0,"SABIB3823",2023-07-06
"310","LB","G9BBYC","WESTNILE","Undetermined",0,"SABIB3823",2023-07-06
"311","WF","QKDWNF","WESTNILE","Undetermined",0,"BTC-2023-07-05",2023-07-05
"312","WF","QKDWNF","WESTNILE","Undetermined",0,"BTC-2023-07-05",2023-07-05
"313","B1","L2N2CZ","WESTNILE","Undetermined",0,"BTW-2023-07-05",2023-07-05
"314","B1","L2N2CZ","WESTNILE","Undetermined",0,"BTW-2023-07-05",2023-07-05
"315","B2","ZR846F","WESTNILE","Undetermined",0,"HW-2023-07-05",2023-07-05
"316","B2","ZR846F","WESTNILE","Undetermined",0,"HW-2023-07-05",2023-07-05
"317","BC","WLFVVY","WESTNILE","Undetermined",0,"Fon-2023-07-05",2023-07-05
"318","BC","WLFVVY","WESTNILE","Undetermined",0,"Fon-2023-07-05",2023-07-05
"319","JT","PFGRWE","ZIKA","Undetermined",0,"PT-23-0706",2023-07-06
"320","JT","PFGRWE","ZIKA","Undetermined",0,"PT-23-0706",2023-07-06
"321","FH","Q4MXHS","ZIKA","Undetermined",0,"HO-23-0706",2023-07-06
"322","FH","Q4MXHS","ZIKA","Undetermined",0,"HO-23-0706",2023-07-06
"323","HS","M2R98S","ZIKA","Undetermined",0,"LB_TX1 007062023",2023-07-06
"324","HS","M2R98S","ZIKA","Undetermined",0,"LB_TX1 007062023",2023-07-06
"325","RB","A9Y94T","ZIKA","Undetermined",0,"BSR3823",2023-07-06
"326","RB","A9Y94T","ZIKA","Undetermined",0,"BSR3823",2023-07-06
"327","LB","G9BBYC","ZIKA","Undetermined",0,"SABIB3823",2023-07-06
"328","LB","G9BBYC","ZIKA","Undetermined",0,"SABIB3823",2023-07-06
"329","WF","QKDWNF","ZIKA","Undetermined",0,"BTC-2023-07-05",2023-07-05
"330","WF","QKDWNF","ZIKA","Undetermined",0,"BTC-2023-07-05",2023-07-05
"331","B1","L2N2CZ","ZIKA","Undetermined",0,"BTW-2023-07-05",2023-07-05
"332","B1","L2N2CZ","ZIKA","Undetermined",0,"BTW-2023-07-05",2023-07-05
"333","B2","ZR846F","ZIKA","Undetermined",0,"HW-2023-07-05",2023-07-05
"334","B2","ZR846F","ZIKA","Undetermined",0,"HW-2023-07-05",2023-07-05
"335","BC","WLFVVY","ZIKA","Undetermined",0,"Fon-2023-07-05",2023-07-05
"336","BC","WLFVVY","ZIKA","Undetermined",0,"Fon-2023-07-05",2023-07-05
"337","JT","PFGRWE","MONKEYPOX","37.174",887.547,"PT-23-0706",2023-07-06
"338","JT","PFGRWE","MONKEYPOX","Undetermined",0,"PT-23-0706",2023-07-06
"339","FH","Q4MXHS","MONKEYPOX","Undetermined",0,"HO-23-0706",2023-07-06
"340","FH","Q4MXHS","MONKEYPOX","36.898",1089.491,"HO-23-0706",2023-07-06
"341","HS","M2R98S","MONKEYPOX","Undetermined",0,"LB_TX1 007062023",2023-07-06
"342","HS","M2R98S","MONKEYPOX","36.902",1086.017,"LB_TX1 007062023",2023-07-06
"343","RB","A9Y94T","MONKEYPOX","Undetermined",0,"BSR3823",2023-07-06
"344","RB","A9Y94T","MONKEYPOX","Undetermined",0,"BSR3823",2023-07-06
"345","LB","G9BBYC","MONKEYPOX","Undetermined",0,"SABIB3823",2023-07-06
"346","LB","G9BBYC","MONKEYPOX","Undetermined",0,"SABIB3823",2023-07-06
"347","WF","QKDWNF","MONKEYPOX","Undetermined",0,"BTC-2023-07-05",2023-07-05
"348","WF","QKDWNF","MONKEYPOX","Undetermined",0,"BTC-2023-07-05",2023-07-05
"349","B1","L2N2CZ","MONKEYPOX","Undetermined",0,"BTW-2023-07-05",2023-07-05
"350","B1","L2N2CZ","MONKEYPOX","Undetermined",0,"BTW-2023-07-05",2023-07-05
"351","B2","ZR846F","MONKEYPOX","Undetermined",0,"HW-2023-07-05",2023-07-05
"352","B2","ZR846F","MONKEYPOX","Undetermined",0,"HW-2023-07-05",2023-07-05
"353","BC","WLFVVY","MONKEYPOX","Undetermined",0,"Fon-2023-07-05",2023-07-05
"354","BC","WLFVVY","MONKEYPOX","Undetermined",0,"Fon-2023-07-05",2023-07-05
"355","JT","PFGRWE","INFLUENZAA","Undetermined",0,"PT-23-0706",2023-07-06
"356","JT","PFGRWE","INFLUENZAA","Undetermined",0,"PT-23-0706",2023-07-06
"357","FH","Q4MXHS","INFLUENZAA","Undetermined",0,"HO-23-0706",2023-07-06
"358","FH","Q4MXHS","INFLUENZAA","Undetermined",0,"HO-23-0706",2023-07-06
"359","HS","M2R98S","INFLUENZAA","Undetermined",0,"LB_TX1 007062023",2023-07-06
"360","HS","M2R98S","INFLUENZAA","Undetermined",0,"LB_TX1 007062023",2023-07-06
"361","RB","A9Y94T","INFLUENZAA","Undetermined",0,"BSR3823",2023-07-06
"362","RB","A9Y94T","INFLUENZAA","Undetermined",0,"BSR3823",2023-07-06
"363","LB","G9BBYC","INFLUENZAA","Undetermined",0,"SABIB3823",2023-07-06
"364","LB","G9BBYC","INFLUENZAA","Undetermined",0,"SABIB3823",2023-07-06
"365","WF","QKDWNF","INFLUENZAA","Undetermined",0,"BTC-2023-07-05",2023-07-05
"366","WF","QKDWNF","INFLUENZAA","Undetermined",0,"BTC-2023-07-05",2023-07-05
"367","B1","L2N2CZ","INFLUENZAA","Undetermined",0,"BTW-2023-07-05",2023-07-05
"368","B1","L2N2CZ","INFLUENZAA","Undetermined",0,"BTW-2023-07-05",2023-07-05
"369","B2","ZR846F","INFLUENZAA","Undetermined",0,"HW-2023-07-05",2023-07-05
"370","B2","ZR846F","INFLUENZAA","Undetermined",0,"HW-2023-07-05",2023-07-05
"371","BC","WLFVVY","INFLUENZAA","Undetermined",0,"Fon-2023-07-05",2023-07-05
"372","BC","WLFVVY","INFLUENZAA","Undetermined",0,"Fon-2023-07-05",2023-07-05
"373","JT","PFGRWE","INFLUENZAB","Undetermined",0,"PT-23-0706",2023-07-06
"374","JT","PFGRWE","INFLUENZAB","Undetermined",0,"PT-23-0706",2023-07-06
"375","FH","Q4MXHS","INFLUENZAB","Undetermined",0,"HO-23-0706",2023-07-06
"376","FH","Q4MXHS","INFLUENZAB","Undetermined",0,"HO-23-0706",2023-07-06
"377","HS","M2R98S","INFLUENZAB","Undetermined",0,"LB_TX1 007062023",2023-07-06
"378","HS","M2R98S","INFLUENZAB","Undetermined",0,"LB_TX1 007062023",2023-07-06
"379","RB","A9Y94T","INFLUENZAB","Undetermined",0,"BSR3823",2023-07-06
"380","RB","A9Y94T","INFLUENZAB","Undetermined",0,"BSR3823",2023-07-06
"381","LB","G9BBYC","INFLUENZAB","Undetermined",0,"SABIB3823",2023-07-06
"382","LB","G9BBYC","INFLUENZAB","Undetermined",0,"SABIB3823",2023-07-06
"383","WF","QKDWNF","INFLUENZAB","Undetermined",0,"BTC-2023-07-05",2023-07-05
"384","WF","QKDWNF","INFLUENZAB","Undetermined",0,"BTC-2023-07-05",2023-07-05
"385","B1","L2N2CZ","INFLUENZAB","Undetermined",0,"BTW-2023-07-05",2023-07-05
"386","B1","L2N2CZ","INFLUENZAB","Undetermined",0,"BTW-2023-07-05",2023-07-05
"387","B2","ZR846F","INFLUENZAB","Undetermined",0,"HW-2023-07-05",2023-07-05
"388","B2","ZR846F","INFLUENZAB","Undetermined",0,"HW-2023-07-05",2023-07-05
"389","BC","WLFVVY","INFLUENZAB","Undetermined",0,"Fon-2023-07-05",2023-07-05
"390","BC","WLFVVY","INFLUENZAB","Undetermined",0,"Fon-2023-07-05",2023-07-05
"391","JT","PFGRWE","SARSCOV2N1","30.315",144822.636,"PT-23-0706",2023-07-06
"392","JT","PFGRWE","SARSCOV2N1","30.394",136528.571,"PT-23-0706",2023-07-06
"393","FH","Q4MXHS","SARSCOV2N1","30.462",129823.28,"HO-23-0706",2023-07-06
"394","FH","Q4MXHS","SARSCOV2N1","29.814",209986.457,"HO-23-0706",2023-07-06
"395","HS","M2R98S","SARSCOV2N1","31.151",77803.25,"LB_TX1 007062023",2023-07-06
"396","HS","M2R98S","SARSCOV2N1","31.104",80561.356,"LB_TX1 007062023",2023-07-06
"397","RB","A9Y94T","SARSCOV2N1","30.16",162433.333,"BSR3823",2023-07-06
"398","RB","A9Y94T","SARSCOV2N1","29.88",200074.291,"BSR3823",2023-07-06
"399","LB","G9BBYC","SARSCOV2N1","31.256",71955.211,"SABIB3823",2023-07-06
"400","LB","G9BBYC","SARSCOV2N1","30.846",97599.895,"SABIB3823",2023-07-06
"401","WF","QKDWNF","SARSCOV2N1","30.61",116256.459,"BTC-2023-07-05",2023-07-05
"402","WF","QKDWNF","SARSCOV2N1","30.405",135417.614,"BTC-2023-07-05",2023-07-05
"403","B1","L2N2CZ","SARSCOV2N1","30.048",176602.862,"BTW-2023-07-05",2023-07-05
"404","B1","L2N2CZ","SARSCOV2N1","30.278",148791.589,"BTW-2023-07-05",2023-07-05
"405","B2","ZR846F","SARSCOV2N1","30.413",134635.327,"HW-2023-07-05",2023-07-05
"406","B2","ZR846F","SARSCOV2N1","30.279",148647.985,"HW-2023-07-05",2023-07-05
"407","BC","WLFVVY","SARSCOV2N1","31.058",83361.492,"Fon-2023-07-05",2023-07-05
"408","BC","WLFVVY","SARSCOV2N1","30.568",119976.037,"Fon-2023-07-05",2023-07-05
"409","JT","FM2FEQ","CHIKUNGUNYA","Undetermined",0,"JT-23-21082",2023-07-06
"410","JT","FM2FEQ","CHIKUNGUNYA","Undetermined",0,"JT-23-21082",2023-07-06
"411","FH","DP3596","CHIKUNGUNYA","Undetermined",0,"FH-23-21083",2023-07-06
"412","FH","DP3596","CHIKUNGUNYA","Undetermined",0,"FH-23-21083",2023-07-06
"413","HS","NKHTVA","CHIKUNGUNYA","Undetermined",0,"HS-23-21084",2023-07-06
"414","HS","NKHTVA","CHIKUNGUNYA","Undetermined",0,"HS-23-21084",2023-07-06
"415","RB","VHREHM","CHIKUNGUNYA","Undetermined",0,"RB-23-21085",2023-07-06
"416","RB","VHREHM","CHIKUNGUNYA","Undetermined",0,"RB-23-21085",2023-07-06
"417","AS","BDJGHG","CHIKUNGUNYA","Undetermined",0,"AS-23-0706",2023-07-06
"418","AS","BDJGHG","CHIKUNGUNYA","Undetermined",0,"AS-23-0706",2023-07-06
"419","TC","ZW4G8Y","CHIKUNGUNYA","Undetermined",0,"TC-23-0706",2023-07-06
"420","TC","ZW4G8Y","CHIKUNGUNYA","Undetermined",0,"TC-23-0706",2023-07-06
"421","MC","MFUHYA","CHIKUNGUNYA","Undetermined",0,"MC-23-0706",2023-07-06
"422","MC","MFUHYA","CHIKUNGUNYA","Undetermined",0,"MC-23-0706",2023-07-06
"423","IA","PJSUTZ","CHIKUNGUNYA","Undetermined",0,"IA-23-0706",2023-07-06
"424","IA","PJSUTZ","CHIKUNGUNYA","Undetermined",0,"IA-23-0706",2023-07-06
"425","PT","PFGRWE","CHIKUNGUNYA","Undetermined",0,"PT-23-0706",2023-07-06
"426","PT","PFGRWE","CHIKUNGUNYA","Undetermined",0,"PT-23-0706",2023-07-06
"427","HO","Q4MXHS","CHIKUNGUNYA","Undetermined",0,"HO-23-0706",2023-07-06
"428","HO","Q4MXHS","CHIKUNGUNYA","Undetermined",0,"HO-23-0706",2023-07-06
"429","LB","M2R98S","CHIKUNGUNYA","Undetermined",0,"LB_TX1 007062023",2023-07-06
"430","LB","M2R98S","CHIKUNGUNYA","Undetermined",0,"LB_TX1 007062023",2023-07-06
"431","B1","A9Y94T","CHIKUNGUNYA","Undetermined",0,"BSR3823",2023-07-06
"432","B1","A9Y94T","CHIKUNGUNYA","Undetermined",0,"BSR3823",2023-07-06
"433","B2","G9BBYC","CHIKUNGUNYA","Undetermined",0,"SABIB3823",2023-07-06
"434","B2","G9BBYC","CHIKUNGUNYA","Undetermined",0,"SABIB3823",2023-07-06
"435","BC","QKDWNF","CHIKUNGUNYA","Undetermined",0,"BTC-2023-07-05",2023-07-05
"436","BC","QKDWNF","CHIKUNGUNYA","Undetermined",0,"BTC-2023-07-05",2023-07-05
"437","BW","L2N2CZ","CHIKUNGUNYA","Undetermined",0,"BTW-2023-07-05",2023-07-05
"438","BW","L2N2CZ","CHIKUNGUNYA","Undetermined",0,"BTW-2023-07-05",2023-07-05
"439","HW","ZR846F","CHIKUNGUNYA","Undetermined",0,"HW-2023-07-05",2023-07-05
"440","HW","ZR846F","CHIKUNGUNYA","Undetermined",0,"HW-2023-07-05",2023-07-05
"441","FR","WLFVVY","CHIKUNGUNYA","Undetermined",0,"Fon-2023-07-05",2023-07-05
"442","FR","WLFVVY","CHIKUNGUNYA","Undetermined",0,"Fon-2023-07-05",2023-07-05
"443","JT","FM2FEQ","DENGUE","Undetermined",0,"JT-23-21082",2023-07-06
"444","JT","FM2FEQ","DENGUE","Undetermined",0,"JT-23-21082",2023-07-06
"445","FH","DP3596","DENGUE","Undetermined",0,"FH-23-21083",2023-07-06
"446","FH","DP3596","DENGUE","Undetermined",0,"FH-23-21083",2023-07-06
"447","HS","NKHTVA","DENGUE","Undetermined",0,"HS-23-21084",2023-07-06
"448","HS","NKHTVA","DENGUE","Undetermined",0,"HS-23-21084",2023-07-06
"449","RB","VHREHM","DENGUE","Undetermined",0,"RB-23-21085",2023-07-06
"450","RB","VHREHM","DENGUE","Undetermined",0,"RB-23-21085",2023-07-06
"451","AS","BDJGHG","DENGUE","Undetermined",0,"AS-23-0706",2023-07-06
"452","AS","BDJGHG","DENGUE","Undetermined",0,"AS-23-0706",2023-07-06
"453","TC","ZW4G8Y","DENGUE","Undetermined",0,"TC-23-0706",2023-07-06
"454","TC","ZW4G8Y","DENGUE","Undetermined",0,"TC-23-0706",2023-07-06
"455","MC","MFUHYA","DENGUE","Undetermined",0,"MC-23-0706",2023-07-06
"456","MC","MFUHYA","DENGUE","Undetermined",0,"MC-23-0706",2023-07-06
"457","IA","PJSUTZ","DENGUE","Undetermined",0,"IA-23-0706",2023-07-06
"458","IA","PJSUTZ","DENGUE","Undetermined",0,"IA-23-0706",2023-07-06
"459","PT","PFGRWE","DENGUE","Undetermined",0,"PT-23-0706",2023-07-06
"460","PT","PFGRWE","DENGUE","Undetermined",0,"PT-23-0706",2023-07-06
"461","HO","Q4MXHS","DENGUE","Undetermined",0,"HO-23-0706",2023-07-06
"462","HO","Q4MXHS","DENGUE","Undetermined",0,"HO-23-0706",2023-07-06
"463","LB","M2R98S","DENGUE","Undetermined",0,"LB_TX1 007062023",2023-07-06
"464","LB","M2R98S","DENGUE","Undetermined",0,"LB_TX1 007062023",2023-07-06
"465","B1","A9Y94T","DENGUE","Undetermined",0,"BSR3823",2023-07-06
"466","B1","A9Y94T","DENGUE","Undetermined",0,"BSR3823",2023-07-06
"467","B2","G9BBYC","DENGUE","Undetermined",0,"SABIB3823",2023-07-06
"468","B2","G9BBYC","DENGUE","Undetermined",0,"SABIB3823",2023-07-06
"469","BC","QKDWNF","DENGUE","Undetermined",0,"BTC-2023-07-05",2023-07-05
"470","BC","QKDWNF","DENGUE","Undetermined",0,"BTC-2023-07-05",2023-07-05
"471","BW","L2N2CZ","DENGUE","Undetermined",0,"BTW-2023-07-05",2023-07-05
"472","BW","L2N2CZ","DENGUE","Undetermined",0,"BTW-2023-07-05",2023-07-05
"473","HW","ZR846F","DENGUE","Undetermined",0,"HW-2023-07-05",2023-07-05
"474","HW","ZR846F","DENGUE","Undetermined",0,"HW-2023-07-05",2023-07-05
"475","FR","WLFVVY","DENGUE","Undetermined",0,"Fon-2023-07-05",2023-07-05
"476","FR","WLFVVY","DENGUE","Undetermined",0,"Fon-2023-07-05",2023-07-05
"477","JT","FM2FEQ","ENTERO","Undetermined",0,"JT-23-21082",2023-07-06
"478","JT","FM2FEQ","ENTERO","Undetermined",0,"JT-23-21082",2023-07-06
"479","FH","DP3596","ENTERO","Undetermined",0,"FH-23-21083",2023-07-06
"480","FH","DP3596","ENTERO","Undetermined",0,"FH-23-21083",2023-07-06
"481","HS","NKHTVA","ENTERO","Undetermined",0,"HS-23-21084",2023-07-06
"482","HS","NKHTVA","ENTERO","Undetermined",0,"HS-23-21084",2023-07-06
"483","RB","VHREHM","ENTERO","Undetermined",0,"RB-23-21085",2023-07-06
"484","RB","VHREHM","ENTERO","Undetermined",0,"RB-23-21085",2023-07-06
"485","AS","BDJGHG","ENTERO","Undetermined",0,"AS-23-0706",2023-07-06
"486","AS","BDJGHG","ENTERO","Undetermined",0,"AS-23-0706",2023-07-06
"487","TC","ZW4G8Y","ENTERO","Undetermined",0,"TC-23-0706",2023-07-06
"488","TC","ZW4G8Y","ENTERO","Undetermined",0,"TC-23-0706",2023-07-06
"489","MC","MFUHYA","ENTERO","Undetermined",0,"MC-23-0706",2023-07-06
"490","MC","MFUHYA","ENTERO","Undetermined",0,"MC-23-0706",2023-07-06
"491","IA","PJSUTZ","ENTERO","Undetermined",0,"IA-23-0706",2023-07-06
"492","IA","PJSUTZ","ENTERO","Undetermined",0,"IA-23-0706",2023-07-06
"493","PT","PFGRWE","ENTERO","Undetermined",0,"PT-23-0706",2023-07-06
"494","PT","PFGRWE","ENTERO","Undetermined",0,"PT-23-0706",2023-07-06
"495","HO","Q4MXHS","ENTERO","Undetermined",0,"HO-23-0706",2023-07-06
"496","HO","Q4MXHS","ENTERO","Undetermined",0,"HO-23-0706",2023-07-06
"497","LB","M2R98S","ENTERO","Undetermined",0,"LB_TX1 007062023",2023-07-06
"498","LB","M2R98S","ENTERO","Undetermined",0,"LB_TX1 007062023",2023-07-06
"499","B1","A9Y94T","ENTERO","Undetermined",0,"BSR3823",2023-07-06
"500","B1","A9Y94T","ENTERO","Undetermined",0,"BSR3823",2023-07-06
"501","B2","G9BBYC","ENTERO","Undetermined",0,"SABIB3823",2023-07-06
"502","B2","G9BBYC","ENTERO","Undetermined",0,"SABIB3823",2023-07-06
"503","BC","QKDWNF","ENTERO","Undetermined",0,"BTC-2023-07-05",2023-07-05
"504","BC","QKDWNF","ENTERO","Undetermined",0,"BTC-2023-07-05",2023-07-05
"505","BW","L2N2CZ","ENTERO","Undetermined",0,"BTW-2023-07-05",2023-07-05
"506","BW","L2N2CZ","ENTERO","Undetermined",0,"BTW-2023-07-05",2023-07-05
"507","HW","ZR846F","ENTERO","Undetermined",0,"HW-2023-07-05",2023-07-05
"508","HW","ZR846F","ENTERO","Undetermined",0,"HW-2023-07-05",2023-07-05
"509","FR","WLFVVY","ENTERO","Undetermined",0,"Fon-2023-07-05",2023-07-05
"510","FR","WLFVVY","ENTERO","Undetermined",0,"Fon-2023-07-05",2023-07-05
"511","JT","FM2FEQ","NOROVIRUS","31.32",1022677.508,"JT-23-21082",2023-07-06
"512","JT","FM2FEQ","NOROVIRUS","31.692",790891.818,"JT-23-21082",2023-07-06
"513","FH","DP3596","NOROVIRUS","40.614",1654.923,"FH-23-21083",2023-07-06
"514","FH","DP3596","NOROVIRUS","42.426",472.883,"FH-23-21083",2023-07-06
"515","HS","NKHTVA","NOROVIRUS","37.214",17365.154,"HS-23-21084",2023-07-06
"516","HS","NKHTVA","NOROVIRUS","32.565",432439.036,"HS-23-21084",2023-07-06
"517","RB","VHREHM","NOROVIRUS","31.904",682673.711,"RB-23-21085",2023-07-06
"518","RB","VHREHM","NOROVIRUS","31.445",937931.533,"RB-23-21085",2023-07-06
"519","AS","BDJGHG","NOROVIRUS","33.675",200762.062,"AS-23-0706",2023-07-06
"520","AS","BDJGHG","NOROVIRUS","32.729",386051.826,"AS-23-0706",2023-07-06
"521","TC","ZW4G8Y","NOROVIRUS","37.453",14719.968,"TC-23-0706",2023-07-06
"522","TC","ZW4G8Y","NOROVIRUS","39.781",2943.729,"TC-23-0706",2023-07-06
"523","MC","MFUHYA","NOROVIRUS","Undetermined",0,"MC-23-0706",2023-07-06
"524","MC","MFUHYA","NOROVIRUS","Undetermined",0,"MC-23-0706",2023-07-06
"525","IA","PJSUTZ","NOROVIRUS","33.835",179623.572,"IA-23-0706",2023-07-06
"526","IA","PJSUTZ","NOROVIRUS","30.216",2194018.099,"IA-23-0706",2023-07-06
"527","PT","PFGRWE","NOROVIRUS","Undetermined",0,"PT-23-0706",2023-07-06
"528","PT","PFGRWE","NOROVIRUS","Undetermined",0,"PT-23-0706",2023-07-06
"529","HO","Q4MXHS","NOROVIRUS","31.039",1241746.655,"HO-23-0706",2023-07-06
"530","HO","Q4MXHS","NOROVIRUS","30.846",1419714.987,"HO-23-0706",2023-07-06
"531","LB","M2R98S","NOROVIRUS","Undetermined",0,"LB_TX1 007062023",2023-07-06
"532","LB","M2R98S","NOROVIRUS","Undetermined",0,"LB_TX1 007062023",2023-07-06
"533","B1","A9Y94T","NOROVIRUS","30.721",1547563.985,"BSR3823",2023-07-06
"534","B1","A9Y94T","NOROVIRUS","28.946",5279484.963,"BSR3823",2023-07-06
"535","B2","G9BBYC","NOROVIRUS","Undetermined",0,"SABIB3823",2023-07-06
"536","B2","G9BBYC","NOROVIRUS","35.122",73800.112,"SABIB3823",2023-07-06
"537","BC","QKDWNF","NOROVIRUS","Undetermined",0,"BTC-2023-07-05",2023-07-05
"538","BC","QKDWNF","NOROVIRUS","Undetermined",0,"BTC-2023-07-05",2023-07-05
"539","BW","L2N2CZ","NOROVIRUS","31.115",1178338.956,"BTW-2023-07-05",2023-07-05
"540","BW","L2N2CZ","NOROVIRUS","30.623",1656296.575,"BTW-2023-07-05",2023-07-05
"541","HW","ZR846F","NOROVIRUS","Undetermined",0,"HW-2023-07-05",2023-07-05
"542","HW","ZR846F","NOROVIRUS","36.005",40076.691,"HW-2023-07-05",2023-07-05
"543","FR","WLFVVY","NOROVIRUS","30.866",1399442.054,"Fon-2023-07-05",2023-07-05
"544","FR","WLFVVY","NOROVIRUS","30.37",1972122.553,"Fon-2023-07-05",2023-07-05
"545","JT","FM2FEQ","RSVA","Undetermined",0,"JT-23-21082",2023-07-06
"546","JT","FM2FEQ","RSVA","Undetermined",0,"JT-23-21082",2023-07-06
"547","FH","DP3596","RSVA","Undetermined",0,"FH-23-21083",2023-07-06
"548","FH","DP3596","RSVA","Undetermined",0,"FH-23-21083",2023-07-06
"549","HS","NKHTVA","RSVA","Undetermined",0,"HS-23-21084",2023-07-06
"550","HS","NKHTVA","RSVA","Undetermined",0,"HS-23-21084",2023-07-06
"551","RB","VHREHM","RSVA","Undetermined",0,"RB-23-21085",2023-07-06
"552","RB","VHREHM","RSVA","Undetermined",0,"RB-23-21085",2023-07-06
"553","AS","BDJGHG","RSVA","Undetermined",0,"AS-23-0706",2023-07-06
"554","AS","BDJGHG","RSVA","Undetermined",0,"AS-23-0706",2023-07-06
"555","TC","ZW4G8Y","RSVA","Undetermined",0,"TC-23-0706",2023-07-06
"556","TC","ZW4G8Y","RSVA","Undetermined",0,"TC-23-0706",2023-07-06
"557","MC","MFUHYA","RSVA","Undetermined",0,"MC-23-0706",2023-07-06
"558","MC","MFUHYA","RSVA","Undetermined",0,"MC-23-0706",2023-07-06
"559","IA","PJSUTZ","RSVA","Undetermined",0,"IA-23-0706",2023-07-06
"560","IA","PJSUTZ","RSVA","Undetermined",0,"IA-23-0706",2023-07-06
"561","PT","PFGRWE","RSVA","Undetermined",0,"PT-23-0706",2023-07-06
"562","PT","PFGRWE","RSVA","Undetermined",0,"PT-23-0706",2023-07-06
"563","HO","Q4MXHS","RSVA","Undetermined",0,"HO-23-0706",2023-07-06
"564","HO","Q4MXHS","RSVA","Undetermined",0,"HO-23-0706",2023-07-06
"565","LB","M2R98S","RSVA","Undetermined",0,"LB_TX1 007062023",2023-07-06
"566","LB","M2R98S","RSVA","Undetermined",0,"LB_TX1 007062023",2023-07-06
"567","B1","A9Y94T","RSVA","Undetermined",0,"BSR3823",2023-07-06
"568","B1","A9Y94T","RSVA","Undetermined",0,"BSR3823",2023-07-06
"569","B2","G9BBYC","RSVA","Undetermined",0,"SABIB3823",2023-07-06
"570","B2","G9BBYC","RSVA","Undetermined",0,"SABIB3823",2023-07-06
"571","BC","QKDWNF","RSVA","Undetermined",0,"BTC-2023-07-05",2023-07-05
"572","BC","QKDWNF","RSVA","Undetermined",0,"BTC-2023-07-05",2023-07-05
"573","BW","L2N2CZ","RSVA","Undetermined",0,"BTW-2023-07-05",2023-07-05
"574","BW","L2N2CZ","RSVA","Undetermined",0,"BTW-2023-07-05",2023-07-05
"575","HW","ZR846F","RSVA","Undetermined",0,"HW-2023-07-05",2023-07-05
"576","HW","ZR846F","RSVA","Undetermined",0,"HW-2023-07-05",2023-07-05
"577","FR","WLFVVY","RSVA","Undetermined",0,"Fon-2023-07-05",2023-07-05
"578","FR","WLFVVY","RSVA","Undetermined",0,"Fon-2023-07-05",2023-07-05
"579","JT","FM2FEQ","RSVB","Undetermined",0,"JT-23-21082",2023-07-06
"580","JT","FM2FEQ","RSVB","Undetermined",0,"JT-23-21082",2023-07-06
"581","FH","DP3596","RSVB","Undetermined",0,"FH-23-21083",2023-07-06
"582","FH","DP3596","RSVB","Undetermined",0,"FH-23-21083",2023-07-06
"583","HS","NKHTVA","RSVB","Undetermined",0,"HS-23-21084",2023-07-06
"584","HS","NKHTVA","RSVB","Undetermined",0,"HS-23-21084",2023-07-06
"585","RB","VHREHM","RSVB","Undetermined",0,"RB-23-21085",2023-07-06
"586","RB","VHREHM","RSVB","Undetermined",0,"RB-23-21085",2023-07-06
"587","AS","BDJGHG","RSVB","Undetermined",0,"AS-23-0706",2023-07-06
"588","AS","BDJGHG","RSVB","Undetermined",0,"AS-23-0706",2023-07-06
"589","TC","ZW4G8Y","RSVB","Undetermined",0,"TC-23-0706",2023-07-06
"590","TC","ZW4G8Y","RSVB","Undetermined",0,"TC-23-0706",2023-07-06
"591","MC","MFUHYA","RSVB","Undetermined",0,"MC-23-0706",2023-07-06
"592","MC","MFUHYA","RSVB","Undetermined",0,"MC-23-0706",2023-07-06
"593","IA","PJSUTZ","RSVB","Undetermined",0,"IA-23-0706",2023-07-06
"594","IA","PJSUTZ","RSVB","Undetermined",0,"IA-23-0706",2023-07-06
"595","PT","PFGRWE","RSVB","Undetermined",0,"PT-23-0706",2023-07-06
"596","PT","PFGRWE","RSVB","Undetermined",0,"PT-23-0706",2023-07-06
"597","HO","Q4MXHS","RSVB","Undetermined",0,"HO-23-0706",2023-07-06
"598","HO","Q4MXHS","RSVB","Undetermined",0,"HO-23-0706",2023-07-06
"599","LB","M2R98S","RSVB","Undetermined",0,"LB_TX1 007062023",2023-07-06
"600","LB","M2R98S","RSVB","Undetermined",0,"LB_TX1 007062023",2023-07-06
"601","B1","A9Y94T","RSVB","Undetermined",0,"BSR3823",2023-07-06
"602","B1","A9Y94T","RSVB","Undetermined",0,"BSR3823",2023-07-06
"603","B2","G9BBYC","RSVB","Undetermined",0,"SABIB3823",2023-07-06
"604","B2","G9BBYC","RSVB","Undetermined",0,"SABIB3823",2023-07-06
"605","BC","QKDWNF","RSVB","Undetermined",0,"BTC-2023-07-05",2023-07-05
"606","BC","QKDWNF","RSVB","Undetermined",0,"BTC-2023-07-05",2023-07-05
"607","BW","L2N2CZ","RSVB","Undetermined",0,"BTW-2023-07-05",2023-07-05
"608","BW","L2N2CZ","RSVB","Undetermined",0,"BTW-2023-07-05",2023-07-05
"609","HW","ZR846F","RSVB","Undetermined",0,"HW-2023-07-05",2023-07-05
"610","HW","ZR846F","RSVB","Undetermined",0,"HW-2023-07-05",2023-07-05
"611","FR","WLFVVY","RSVB","Undetermined",0,"Fon-2023-07-05",2023-07-05
"612","FR","WLFVVY","RSVB","Undetermined",0,"Fon-2023-07-05",2023-07-05
"613","JT","FM2FEQ","WESTNILE","Undetermined",0,"JT-23-21082",2023-07-06
"614","JT","FM2FEQ","WESTNILE","Undetermined",0,"JT-23-21082",2023-07-06
"615","FH","DP3596","WESTNILE","Undetermined",0,"FH-23-21083",2023-07-06
"616","FH","DP3596","WESTNILE","Undetermined",0,"FH-23-21083",2023-07-06
"617","HS","NKHTVA","WESTNILE","Undetermined",0,"HS-23-21084",2023-07-06
"618","HS","NKHTVA","WESTNILE","Undetermined",0,"HS-23-21084",2023-07-06
"619","RB","VHREHM","WESTNILE","Undetermined",0,"RB-23-21085",2023-07-06
"620","RB","VHREHM","WESTNILE","Undetermined",0,"RB-23-21085",2023-07-06
"621","AS","BDJGHG","WESTNILE","Undetermined",0,"AS-23-0706",2023-07-06
"622","AS","BDJGHG","WESTNILE","Undetermined",0,"AS-23-0706",2023-07-06
"623","TC","ZW4G8Y","WESTNILE","Undetermined",0,"TC-23-0706",2023-07-06
"624","TC","ZW4G8Y","WESTNILE","Undetermined",0,"TC-23-0706",2023-07-06
"625","MC","MFUHYA","WESTNILE","Undetermined",0,"MC-23-0706",2023-07-06
"626","MC","MFUHYA","WESTNILE","Undetermined",0,"MC-23-0706",2023-07-06
"627","IA","PJSUTZ","WESTNILE","Undetermined",0,"IA-23-0706",2023-07-06
"628","IA","PJSUTZ","WESTNILE","Undetermined",0,"IA-23-0706",2023-07-06
"629","PT","PFGRWE","WESTNILE","Undetermined",0,"PT-23-0706",2023-07-06
"630","PT","PFGRWE","WESTNILE","Undetermined",0,"PT-23-0706",2023-07-06
"631","HO","Q4MXHS","WESTNILE","Undetermined",0,"HO-23-0706",2023-07-06
"632","HO","Q4MXHS","WESTNILE","Undetermined",0,"HO-23-0706",2023-07-06
"633","LB","M2R98S","WESTNILE","Undetermined",0,"LB_TX1 007062023",2023-07-06
"634","LB","M2R98S","WESTNILE","Undetermined",0,"LB_TX1 007062023",2023-07-06
"635","B1","A9Y94T","WESTNILE","Undetermined",0,"BSR3823",2023-07-06
"636","B1","A9Y94T","WESTNILE","Undetermined",0,"BSR3823",2023-07-06
"637","B2","G9BBYC","WESTNILE","Undetermined",0,"SABIB3823",2023-07-06
"638","B2","G9BBYC","WESTNILE","Undetermined",0,"SABIB3823",2023-07-06
"639","BC","QKDWNF","WESTNILE","Undetermined",0,"BTC-2023-07-05",2023-07-05
"640","BC","QKDWNF","WESTNILE","Undetermined",0,"BTC-2023-07-05",2023-07-05
"641","BW","L2N2CZ","WESTNILE","Undetermined",0,"BTW-2023-07-05",2023-07-05
"642","BW","L2N2CZ","WESTNILE","Undetermined",0,"BTW-2023-07-05",2023-07-05
"643","HW","ZR846F","WESTNILE","Undetermined",0,"HW-2023-07-05",2023-07-05
"644","HW","ZR846F","WESTNILE","Undetermined",0,"HW-2023-07-05",2023-07-05
"645","FR","WLFVVY","WESTNILE","Undetermined",0,"Fon-2023-07-05",2023-07-05
"646","FR","WLFVVY","WESTNILE","Undetermined",0,"Fon-2023-07-05",2023-07-05
"647","JT","FM2FEQ","ZIKA","Undetermined",0,"JT-23-21082",2023-07-06
"648","JT","FM2FEQ","ZIKA","Undetermined",0,"JT-23-21082",2023-07-06
"649","FH","DP3596","ZIKA","Undetermined",0,"FH-23-21083",2023-07-06
"650","FH","DP3596","ZIKA","Undetermined",0,"FH-23-21083",2023-07-06
"651","HS","NKHTVA","ZIKA","Undetermined",0,"HS-23-21084",2023-07-06
"652","HS","NKHTVA","ZIKA","Undetermined",0,"HS-23-21084",2023-07-06
"653","RB","VHREHM","ZIKA","Undetermined",0,"RB-23-21085",2023-07-06
"654","RB","VHREHM","ZIKA","Undetermined",0,"RB-23-21085",2023-07-06
"655","AS","BDJGHG","ZIKA","Undetermined",0,"AS-23-0706",2023-07-06
"656","AS","BDJGHG","ZIKA","Undetermined",0,"AS-23-0706",2023-07-06
"657","TC","ZW4G8Y","ZIKA","Undetermined",0,"TC-23-0706",2023-07-06
"658","TC","ZW4G8Y","ZIKA","Undetermined",0,"TC-23-0706",2023-07-06
"659","MC","MFUHYA","ZIKA","Undetermined",0,"MC-23-0706",2023-07-06
"660","MC","MFUHYA","ZIKA","Undetermined",0,"MC-23-0706",2023-07-06
"661","IA","PJSUTZ","ZIKA","Undetermined",0,"IA-23-0706",2023-07-06
"662","IA","PJSUTZ","ZIKA","Undetermined",0,"IA-23-0706",2023-07-06
"663","PT","PFGRWE","ZIKA","Undetermined",0,"PT-23-0706",2023-07-06
"664","PT","PFGRWE","ZIKA","Undetermined",0,"PT-23-0706",2023-07-06
"665","HO","Q4MXHS","ZIKA","Undetermined",0,"HO-23-0706",2023-07-06
"666","HO","Q4MXHS","ZIKA","Undetermined",0,"HO-23-0706",2023-07-06
"667","LB","M2R98S","ZIKA","Undetermined",0,"LB_TX1 007062023",2023-07-06
"668","LB","M2R98S","ZIKA","Undetermined",0,"LB_TX1 007062023",2023-07-06
"669","B1","A9Y94T","ZIKA","Undetermined",0,"BSR3823",2023-07-06
"670","B1","A9Y94T","ZIKA","Undetermined",0,"BSR3823",2023-07-06
"671","B2","G9BBYC","ZIKA","Undetermined",0,"SABIB3823",2023-07-06
"672","B2","G9BBYC","ZIKA","Undetermined",0,"SABIB3823",2023-07-06
"673","BC","QKDWNF","ZIKA","Undetermined",0,"BTC-2023-07-05",2023-07-05
"674","BC","QKDWNF","ZIKA","Undetermined",0,"BTC-2023-07-05",2023-07-05
"675","BW","L2N2CZ","ZIKA","Undetermined",0,"BTW-2023-07-05",2023-07-05
"676","BW","L2N2CZ","ZIKA","Undetermined",0,"BTW-2023-07-05",2023-07-05
"677","HW","ZR846F","ZIKA","Undetermined",0,"HW-2023-07-05",2023-07-05
"678","HW","ZR846F","ZIKA","Undetermined",0,"HW-2023-07-05",2023-07-05
"679","FR","WLFVVY","ZIKA","Undetermined",0,"Fon-2023-07-05",2023-07-05
"680","FR","WLFVVY","ZIKA","Undetermined",0,"Fon-2023-07-05",2023-07-05
"681","JT","FM2FEQ","MONKEYPOX","Undetermined",0,"JT-23-21082",2023-07-06
"682","JT","FM2FEQ","MONKEYPOX","Undetermined",0,"JT-23-21082",2023-07-06
"683","FH","DP3596","MONKEYPOX","Undetermined",0,"FH-23-21083",2023-07-06
"684","FH","DP3596","MONKEYPOX","Undetermined",0,"FH-23-21083",2023-07-06
"685","HS","NKHTVA","MONKEYPOX","Undetermined",0,"HS-23-21084",2023-07-06
"686","HS","NKHTVA","MONKEYPOX","Undetermined",0,"HS-23-21084",2023-07-06
"687","RB","VHREHM","MONKEYPOX","Undetermined",0,"RB-23-21085",2023-07-06
"688","RB","VHREHM","MONKEYPOX","Undetermined",0,"RB-23-21085",2023-07-06
"689","AS","BDJGHG","MONKEYPOX","Undetermined",0,"AS-23-0706",2023-07-06
"690","AS","BDJGHG","MONKEYPOX","Undetermined",0,"AS-23-0706",2023-07-06
"691","TC","ZW4G8Y","MONKEYPOX","Undetermined",0,"TC-23-0706",2023-07-06
"692","TC","ZW4G8Y","MONKEYPOX","Undetermined",0,"TC-23-0706",2023-07-06
"693","MC","MFUHYA","MONKEYPOX","Undetermined",0,"MC-23-0706",2023-07-06
"694","MC","MFUHYA","MONKEYPOX","Undetermined",0,"MC-23-0706",2023-07-06
"695","IA","PJSUTZ","MONKEYPOX","Undetermined",0,"IA-23-0706",2023-07-06
"696","IA","PJSUTZ","MONKEYPOX","Undetermined",0,"IA-23-0706",2023-07-06
"697","PT","PFGRWE","MONKEYPOX","Undetermined",0,"PT-23-0706",2023-07-06
"698","PT","PFGRWE","MONKEYPOX","Undetermined",0,"PT-23-0706",2023-07-06
"699","HO","Q4MXHS","MONKEYPOX","Undetermined",0,"HO-23-0706",2023-07-06
"700","HO","Q4MXHS","MONKEYPOX","Undetermined",0,"HO-23-0706",2023-07-06
"701","LB","M2R98S","MONKEYPOX","Undetermined",0,"LB_TX1 007062023",2023-07-06
"702","LB","M2R98S","MONKEYPOX","Undetermined",0,"LB_TX1 007062023",2023-07-06
"703","B1","A9Y94T","MONKEYPOX","Undetermined",0,"BSR3823",2023-07-06
"704","B1","A9Y94T","MONKEYPOX","Undetermined",0,"BSR3823",2023-07-06
"705","B2","G9BBYC","MONKEYPOX","Undetermined",0,"SABIB3823",2023-07-06
"706","B2","G9BBYC","MONKEYPOX","Undetermined",0,"SABIB3823",2023-07-06
"707","BC","QKDWNF","MONKEYPOX","Undetermined",0,"BTC-2023-07-05",2023-07-05
"708","BC","QKDWNF","MONKEYPOX","Undetermined",0,"BTC-2023-07-05",2023-07-05
"709","BW","L2N2CZ","MONKEYPOX","Undetermined",0,"BTW-2023-07-05",2023-07-05
"710","BW","L2N2CZ","MONKEYPOX","Undetermined",0,"BTW-2023-07-05",2023-07-05
"711","HW","ZR846F","MONKEYPOX","Undetermined",0,"HW-2023-07-05",2023-07-05
"712","HW","ZR846F","MONKEYPOX","Undetermined",0,"HW-2023-07-05",2023-07-05
"713","FR","WLFVVY","MONKEYPOX","Undetermined",0,"Fon-2023-07-05",2023-07-05
"714","FR","WLFVVY","MONKEYPOX","Undetermined",0,"Fon-2023-07-05",2023-07-05
"715","JT","FM2FEQ","INFLUENZAA","Undetermined",0,"JT-23-21082",2023-07-06
"716","JT","FM2FEQ","INFLUENZAA","Undetermined",0,"JT-23-21082",2023-07-06
"717","FH","DP3596","INFLUENZAA","Undetermined",0,"FH-23-21083",2023-07-06
"718","FH","DP3596","INFLUENZAA","Undetermined",0,"FH-23-21083",2023-07-06
"719","HS","NKHTVA","INFLUENZAA","Undetermined",0,"HS-23-21084",2023-07-06
"720","HS","NKHTVA","INFLUENZAA","Undetermined",0,"HS-23-21084",2023-07-06
"721","RB","VHREHM","INFLUENZAA","Undetermined",0,"RB-23-21085",2023-07-06
"722","RB","VHREHM","INFLUENZAA","Undetermined",0,"RB-23-21085",2023-07-06
"723","AS","BDJGHG","INFLUENZAA","Undetermined",0,"AS-23-0706",2023-07-06
"724","AS","BDJGHG","INFLUENZAA","Undetermined",0,"AS-23-0706",2023-07-06
"725","TC","ZW4G8Y","INFLUENZAA","Undetermined",0,"TC-23-0706",2023-07-06
"726","TC","ZW4G8Y","INFLUENZAA","Undetermined",0,"TC-23-0706",2023-07-06
"727","MC","MFUHYA","INFLUENZAA","Undetermined",0,"MC-23-0706",2023-07-06
"728","MC","MFUHYA","INFLUENZAA","Undetermined",0,"MC-23-0706",2023-07-06
"729","IA","PJSUTZ","INFLUENZAA","Undetermined",0,"IA-23-0706",2023-07-06
"730","IA","PJSUTZ","INFLUENZAA","Undetermined",0,"IA-23-0706",2023-07-06
"731","PT","PFGRWE","INFLUENZAA","Undetermined",0,"PT-23-0706",2023-07-06
"732","PT","PFGRWE","INFLUENZAA","Undetermined",0,"PT-23-0706",2023-07-06
"733","HO","Q4MXHS","INFLUENZAA","Undetermined",0,"HO-23-0706",2023-07-06
"734","HO","Q4MXHS","INFLUENZAA","Undetermined",0,"HO-23-0706",2023-07-06
"735","LB","M2R98S","INFLUENZAA","Undetermined",0,"LB_TX1 007062023",2023-07-06
"736","LB","M2R98S","INFLUENZAA","Undetermined",0,"LB_TX1 007062023",2023-07-06
"737","B1","A9Y94T","INFLUENZAA","Undetermined",0,"BSR3823",2023-07-06
"738","B1","A9Y94T","INFLUENZAA","Undetermined",0,"BSR3823",2023-07-06
"739","B2","G9BBYC","INFLUENZAA","Undetermined",0,"SABIB3823",2023-07-06
"740","B2","G9BBYC","INFLUENZAA","Undetermined",0,"SABIB3823",2023-07-06
"741","BC","QKDWNF","INFLUENZAA","Undetermined",0,"BTC-2023-07-05",2023-07-05
"742","BC","QKDWNF","INFLUENZAA","Undetermined",0,"BTC-2023-07-05",2023-07-05
"743","BW","L2N2CZ","INFLUENZAA","Undetermined",0,"BTW-2023-07-05",2023-07-05
"744","BW","L2N2CZ","INFLUENZAA","Undetermined",0,"BTW-2023-07-05",2023-07-05
"745","HW","ZR846F","INFLUENZAA","Undetermined",0,"HW-2023-07-05",2023-07-05
"746","HW","ZR846F","INFLUENZAA","Undetermined",0,"HW-2023-07-05",2023-07-05
"747","FR","WLFVVY","INFLUENZAA","Undetermined",0,"Fon-2023-07-05",2023-07-05
"748","FR","WLFVVY","INFLUENZAA","Undetermined",0,"Fon-2023-07-05",2023-07-05
"749","JT","FM2FEQ","INFLUENZAB","Undetermined",0,"JT-23-21082",2023-07-06
"750","JT","FM2FEQ","INFLUENZAB","Undetermined",0,"JT-23-21082",2023-07-06
"751","FH","DP3596","INFLUENZAB","Undetermined",0,"FH-23-21083",2023-07-06
"752","FH","DP3596","INFLUENZAB","Undetermined",0,"FH-23-21083",2023-07-06
"753","HS","NKHTVA","INFLUENZAB","Undetermined",0,"HS-23-21084",2023-07-06
"754","HS","NKHTVA","INFLUENZAB","Undetermined",0,"HS-23-21084",2023-07-06
"755","RB","VHREHM","INFLUENZAB","Undetermined",0,"RB-23-21085",2023-07-06
"756","RB","VHREHM","INFLUENZAB","Undetermined",0,"RB-23-21085",2023-07-06
"757","AS","BDJGHG","INFLUENZAB","Undetermined",0,"AS-23-0706",2023-07-06
"758","AS","BDJGHG","INFLUENZAB","Undetermined",0,"AS-23-0706",2023-07-06
"759","TC","ZW4G8Y","INFLUENZAB","Undetermined",0,"TC-23-0706",2023-07-06
"760","TC","ZW4G8Y","INFLUENZAB","Undetermined",0,"TC-23-0706",2023-07-06
"761","MC","MFUHYA","INFLUENZAB","Undetermined",0,"MC-23-0706",2023-07-06
"762","MC","MFUHYA","INFLUENZAB","Undetermined",0,"MC-23-0706",2023-07-06
"763","IA","PJSUTZ","INFLUENZAB","Undetermined",0,"IA-23-0706",2023-07-06
"764","IA","PJSUTZ","INFLUENZAB","Undetermined",0,"IA-23-0706",2023-07-06
"765","PT","PFGRWE","INFLUENZAB","Undetermined",0,"PT-23-0706",2023-07-06
"766","PT","PFGRWE","INFLUENZAB","Undetermined",0,"PT-23-0706",2023-07-06
"767","HO","Q4MXHS","INFLUENZAB","Undetermined",0,"HO-23-0706",2023-07-06
"768","HO","Q4MXHS","INFLUENZAB","Undetermined",0,"HO-23-0706",2023-07-06
"769","LB","M2R98S","INFLUENZAB","Undetermined",0,"LB_TX1 007062023",2023-07-06
"770","LB","M2R98S","INFLUENZAB","Undetermined",0,"LB_TX1 007062023",2023-07-06
"771","B1","A9Y94T","INFLUENZAB","Undetermined",0,"BSR3823",2023-07-06
"772","B1","A9Y94T","INFLUENZAB","Undetermined",0,"BSR3823",2023-07-06
"773","B2","G9BBYC","INFLUENZAB","Undetermined",0,"SABIB3823",2023-07-06
"774","B2","G9BBYC","INFLUENZAB","Undetermined",0,"SABIB3823",2023-07-06
"775","BC","QKDWNF","INFLUENZAB","Undetermined",0,"BTC-2023-07-05",2023-07-05
"776","BC","QKDWNF","INFLUENZAB","Undetermined",0,"BTC-2023-07-05",2023-07-05
"777","BW","L2N2CZ","INFLUENZAB","Undetermined",0,"BTW-2023-07-05",2023-07-05
"778","BW","L2N2CZ","INFLUENZAB","Undetermined",0,"BTW-2023-07-05",2023-07-05
"779","HW","ZR846F","INFLUENZAB","Undetermined",0,"HW-2023-07-05",2023-07-05
"780","HW","ZR846F","INFLUENZAB","Undetermined",0,"HW-2023-07-05",2023-07-05
"781","FR","WLFVVY","INFLUENZAB","Undetermined",0,"Fon-2023-07-05",2023-07-05
"782","FR","WLFVVY","INFLUENZAB","Undetermined",0,"Fon-2023-07-05",2023-07-05
"783","JT","FM2FEQ","SARSCOV2N1","31.594",55992.102,"JT-23-21082",2023-07-06
"784","JT","FM2FEQ","SARSCOV2N1","31.57",57003.427,"JT-23-21082",2023-07-06
"785","FH","DP3596","SARSCOV2N1","32.809",22712.022,"FH-23-21083",2023-07-06
"786","FH","DP3596","SARSCOV2N1","33.393",14715.395,"FH-23-21083",2023-07-06
"787","HS","NKHTVA","SARSCOV2N1","32.785",23118.81,"HS-23-21084",2023-07-06
"788","HS","NKHTVA","SARSCOV2N1","34.03",9168.284,"HS-23-21084",2023-07-06
"789","RB","VHREHM","SARSCOV2N1","31.479",61003.194,"RB-23-21085",2023-07-06
"790","RB","VHREHM","SARSCOV2N1","31.613",55215.658,"RB-23-21085",2023-07-06
"791","AS","BDJGHG","SARSCOV2N1","35.678",2694.922,"AS-23-0706",2023-07-06
"792","AS","BDJGHG","SARSCOV2N1","36.359",1625.42,"AS-23-0706",2023-07-06
"793","TC","ZW4G8Y","SARSCOV2N1","31.392",65080.271,"TC-23-0706",2023-07-06
"794","TC","ZW4G8Y","SARSCOV2N1","32.089",38760.095,"TC-23-0706",2023-07-06
"795","MC","MFUHYA","SARSCOV2N1","31.451",62289.822,"MC-23-0706",2023-07-06
"796","MC","MFUHYA","SARSCOV2N1","31.341",67562.765,"MC-23-0706",2023-07-06
"797","IA","PJSUTZ","SARSCOV2N1","30.336",142528.253,"IA-23-0706",2023-07-06
"798","IA","PJSUTZ","SARSCOV2N1","30.222",155099.587,"IA-23-0706",2023-07-06
"799","PT","PFGRWE","SARSCOV2N1","33.364",15034.691,"PT-23-0706",2023-07-06
"800","PT","PFGRWE","SARSCOV2N1","34.081",8829.441,"PT-23-0706",2023-07-06
"801","HO","Q4MXHS","SARSCOV2N1","31.651",53655.055,"HO-23-0706",2023-07-06
"802","HO","Q4MXHS","SARSCOV2N1","32.157",36864.695,"HO-23-0706",2023-07-06
"803","LB","M2R98S","SARSCOV2N1","32.795",22952.841,"LB_TX1 007062023",2023-07-06
"804","LB","M2R98S","SARSCOV2N1","33.663",12045.822,"LB_TX1 007062023",2023-07-06
"805","B1","A9Y94T","SARSCOV2N1","34.128",8523.356,"BSR3823",2023-07-06
"806","B1","A9Y94T","SARSCOV2N1","34.131",8504.385,"BSR3823",2023-07-06
"807","B2","G9BBYC","SARSCOV2N1","27.515",1158943.472,"SABIB3823",2023-07-06
"808","B2","G9BBYC","SARSCOV2N1","27.509",1163601.277,"SABIB3823",2023-07-06
"809","BC","QKDWNF","SARSCOV2N1","33.146",17679.973,"BTC-2023-07-05",2023-07-05
"810","BC","QKDWNF","SARSCOV2N1","32.729",24100.719,"BTC-2023-07-05",2023-07-05
"811","BW","L2N2CZ","SARSCOV2N1","35.847",2377.004,"BTW-2023-07-05",2023-07-05
"812","BW","L2N2CZ","SARSCOV2N1","32.685",24905.087,"BTW-2023-07-05",2023-07-05
"813","HW","ZR846F","SARSCOV2N1","31.958",42724.32,"HW-2023-07-05",2023-07-05
"814","HW","ZR846F","SARSCOV2N1","32.056",39730.751,"HW-2023-07-05",2023-07-05
"815","FR","WLFVVY","SARSCOV2N1","Undetermined",0,"Fon-2023-07-05",2023-07-05
"816","FR","WLFVVY","SARSCOV2N1","Undetermined",0,"Fon-2023-07-05",2023-07-05
